# TOPAS Version: 3.7
# Parameter File: data/topas/input/plan_1b/main_2GySOBP.txt
# Results for scorer Scoring_protonD_XYBox
# Scored in component: ScoringXYBox
# X in 300 bins of 0.0666667 cm
# Y in 300 bins of 0.0666667 cm
# Z in 1 bin  of 2 cm
# DoseToWater ( Gy ) : Sum   
0, 0, 0, 1.707866772449051e-07
0, 1, 0, 1.937764295689703e-07
0, 2, 0, 2.277527073601959e-07
0, 3, 0, 5.197127848077798e-07
0, 4, 0, 1.438272931864049e-07
0, 5, 0, 7.894972497979325e-08
0, 6, 0, 7.547166802623906e-08
0, 7, 0, 1.284301021087231e-07
0, 8, 0, 1.178060315965013e-07
0, 9, 0, 1.343019420119163e-07
0, 10, 0, 7.79230404646114e-08
0, 11, 0, 1.319533140531348e-07
0, 12, 0, 8.122820815970044e-08
0, 13, 0, 7.781377320270622e-08
0, 14, 0, 7.434051951804577e-08
0, 15, 0, 3.488791548988956e-07
0, 16, 0, 2.78855708302217e-07
0, 17, 0, 1.348160623138028e-07
0, 18, 0, 3.09282768284902e-08
0, 19, 0, 7.50033279928175e-08
0, 20, 0, 5.657698807226552e-07
0, 21, 0, 9.30702768187075e-08
0, 22, 0, 5.783944061477087e-07
0, 23, 0, 4.66740068816307e-08
0, 24, 0, 1.597595939983876e-07
0, 25, 0, 2.478667404659518e-08
0, 26, 0, 1.443398502942728e-07
0, 27, 0, 2.821563498400792e-07
0, 28, 0, 4.899117698187183e-07
0, 29, 0, 1.888831775431754e-07
0, 30, 0, 6.298205335042439e-08
0, 31, 0, 1.24909803389528e-07
0, 32, 0, 1.475752355872828e-07
0, 33, 0, 1.176066248831376e-07
0, 34, 0, 2.443532025608874e-07
0, 35, 0, 3.128142012087665e-08
0, 36, 0, 2.152636540131425e-07
0, 37, 0, 1.343868660796943e-07
0, 38, 0, 1.38135618499291e-07
0, 39, 0, 1.751089371282433e-07
0, 40, 0, 5.430428018371458e-07
0, 41, 0, 1.54399330654087e-07
0, 42, 0, 1.404887512990172e-07
0, 43, 0, 8.758419056675848e-08
0, 44, 0, 8.299112863596747e-08
0, 45, 0, 1.510545928340434e-07
0, 46, 0, 1.352941296772769e-07
0, 47, 0, 6.101701899297041e-08
0, 48, 0, 2.399085872184514e-07
0, 49, 0, 3.194215310031723e-07
0, 50, 0, 1.256159976037452e-07
0, 51, 0, 1.009451011668716e-07
0, 52, 0, 8.973853482530103e-08
0, 53, 0, 1.851356756787936e-07
0, 54, 0, 9.039819559575335e-08
0, 55, 0, 6.62005845697422e-08
0, 56, 0, 1.318616966727859e-07
0, 57, 0, 2.672128296410392e-08
0, 58, 0, 3.567384112557193e-07
0, 59, 0, 1.33596344653597e-07
0, 60, 0, 3.297264754564821e-07
0, 61, 0, 3.451414158917032e-07
0, 62, 0, 1.193183862824299e-07
0, 63, 0, 2.148167368432041e-07
0, 64, 0, 1.081176250750104e-07
0, 65, 0, 4.03525071135391e-08
0, 66, 0, 2.114211383741349e-07
0, 67, 0, 1.1982085368345e-07
0, 68, 0, 1.878184434644936e-07
0, 69, 0, 9.192831385007594e-08
0, 70, 0, 2.442199047436588e-07
0, 71, 0, 1.921789305470156e-07
0, 72, 0, 3.36372750098235e-07
0, 73, 0, 1.514512462108542e-07
0, 74, 0, 3.528121226281655e-07
0, 75, 0, 1.413063017707827e-07
0, 76, 0, 3.720849974797602e-07
0, 77, 0, 1.37180720116703e-07
0, 78, 0, 8.570990672751577e-08
0, 79, 0, 1.639220954530174e-07
0, 80, 0, 1.666934821287214e-07
0, 81, 0, 1.770905271314405e-07
0, 82, 0, 4.398593773657922e-07
0, 83, 0, 1.044106099357123e-07
0, 84, 0, 4.005541498486309e-08
0, 85, 0, 1.714721946655118e-07
0, 86, 0, 1.483775520227937e-07
0, 87, 0, 2.787742801046988e-07
0, 88, 0, 1.646989744585881e-07
0, 89, 0, 1.541695269224874e-07
0, 90, 0, 1.052494980058327e-07
0, 91, 0, 3.866441034006129e-07
0, 92, 0, 3.643953334631078e-07
0, 93, 0, 2.09025628805648e-07
0, 94, 0, 4.686350152383056e-08
0, 95, 0, 2.132519938413679e-07
0, 96, 0, 2.269996457471279e-07
0, 97, 0, 4.450078279205627e-07
0, 98, 0, 2.688647384729848e-07
0, 99, 0, 3.165871476085158e-07
0, 100, 0, 2.388491679994331e-07
0, 101, 0, 2.819257076680515e-07
0, 102, 0, 2.175587496822118e-07
0, 103, 0, 2.990457517171308e-07
0, 104, 0, 3.451666543696774e-07
0, 105, 0, 2.656977642345737e-07
0, 106, 0, 3.009884892435366e-07
0, 107, 0, 1.298660379234207e-07
0, 108, 0, 4.525308838765341e-07
0, 109, 0, 2.684179776224482e-07
0, 110, 0, 2.30241866461256e-07
0, 111, 0, 2.187022829502894e-07
0, 112, 0, 2.711866500249016e-07
0, 113, 0, 2.959560276849516e-07
0, 114, 0, 2.933103928626224e-07
0, 115, 0, 2.058623351786082e-07
0, 116, 0, 2.612535752177791e-07
0, 117, 0, 1.709847055053615e-07
0, 118, 0, 2.842986361883959e-07
0, 119, 0, 1.879508459978751e-07
0, 120, 0, 1.740631034863327e-07
0, 121, 0, 4.783521490026033e-07
0, 122, 0, 5.680582262357348e-07
0, 123, 0, 5.432696070784004e-07
0, 124, 0, 4.499012788983237e-07
0, 125, 0, 1.658292205775069e-07
0, 126, 0, 1.720894147183571e-07
0, 127, 0, 2.893128794312361e-07
0, 128, 0, 4.181000292646786e-07
0, 129, 0, 3.351505313275993e-07
0, 130, 0, 1.914195877361635e-07
0, 131, 0, 2.8780576144527e-07
0, 132, 0, 4.932352339892532e-07
0, 133, 0, 3.834887536413589e-07
0, 134, 0, 1.74792646134847e-07
0, 135, 0, 1.654377257409578e-07
0, 136, 0, 2.574952304712497e-07
0, 137, 0, 2.232301881122112e-07
0, 138, 0, 4.025696398457512e-07
0, 139, 0, 4.252459007147991e-07
0, 140, 0, 3.36076851681355e-07
0, 141, 0, 2.006238730700716e-07
0, 142, 0, 4.003523486062477e-07
0, 143, 0, 2.483920411577856e-07
0, 144, 0, 2.308819944119023e-07
0, 145, 0, 2.173995028442732e-07
0, 146, 0, 1.51993546637641e-07
0, 147, 0, 2.200499551463508e-07
0, 148, 0, 1.55931147105548e-07
0, 149, 0, 3.046624215130578e-07
0, 150, 0, 3.456384831679316e-07
0, 151, 0, 3.30187191366349e-07
0, 152, 0, 2.868820843104913e-07
0, 153, 0, 2.394207285760785e-07
0, 154, 0, 2.322110788099963e-07
0, 155, 0, 4.485192448555608e-07
0, 156, 0, 2.540687376040296e-07
0, 157, 0, 2.689911582365312e-07
0, 158, 0, 1.902077002569058e-07
0, 159, 0, 1.567407394986731e-07
0, 160, 0, 3.02085425119003e-07
0, 161, 0, 2.284466233959392e-07
0, 162, 0, 1.914128091584644e-07
0, 163, 0, 2.606747102618101e-07
0, 164, 0, 2.173241995251374e-07
0, 165, 0, 3.47623853258483e-07
0, 166, 0, 2.95398791649859e-07
0, 167, 0, 1.955484094651183e-07
0, 168, 0, 4.353554174940655e-07
0, 169, 0, 3.649017514817388e-07
0, 170, 0, 3.36518752419579e-07
0, 171, 0, 4.939175255458395e-07
0, 172, 0, 5.681456514139427e-07
0, 173, 0, 3.968864064063382e-07
0, 174, 0, 5.914246798965905e-07
0, 175, 0, 6.395553668880893e-07
0, 176, 0, 3.603537663821044e-07
0, 177, 0, 2.262384555251629e-07
0, 178, 0, 4.5698698158958e-07
0, 179, 0, 1.131780607011024e-07
0, 180, 0, 2.739335798196407e-07
0, 181, 0, 4.90259424168471e-07
0, 182, 0, 2.130440321934657e-07
0, 183, 0, 3.148233247429744e-07
0, 184, 0, 3.307638394289825e-07
0, 185, 0, 2.848739768523956e-07
0, 186, 0, 3.245452830924478e-07
0, 187, 0, 2.082095562627728e-07
0, 188, 0, 4.246471405622287e-07
0, 189, 0, 2.190957530956439e-07
0, 190, 0, 2.525283093746111e-07
0, 191, 0, 2.293234899752861e-07
0, 192, 0, 2.594556463009212e-07
0, 193, 0, 3.312213152639742e-07
0, 194, 0, 4.610366772794805e-07
0, 195, 0, 2.090536952437105e-07
0, 196, 0, 4.949189360559103e-07
0, 197, 0, 6.262505394261098e-07
0, 198, 0, 3.316178265322378e-07
0, 199, 0, 1.816678718569165e-07
0, 200, 0, 1.674610388135989e-07
0, 201, 0, 7.231878385027812e-07
0, 202, 0, 3.825900591891696e-07
0, 203, 0, 4.505378399244364e-07
0, 204, 0, 2.683910906853271e-07
0, 205, 0, 2.884647472001234e-07
0, 206, 0, 3.010136992998014e-07
0, 207, 0, 2.264410312591281e-07
0, 208, 0, 2.560795451245212e-07
0, 209, 0, 1.928658406313843e-07
0, 210, 0, 2.304388004858993e-07
0, 211, 0, 2.511708601105056e-07
0, 212, 0, 1.696059825917473e-07
0, 213, 0, 1.956287292159686e-07
0, 214, 0, 1.8295406789548e-07
0, 215, 0, 3.258026310959394e-07
0, 216, 0, 2.806109478115104e-07
0, 217, 0, 5.54952350739768e-07
0, 218, 0, 3.136335635645082e-07
0, 219, 0, 2.687423545921774e-07
0, 220, 0, 2.394710634234798e-07
0, 221, 0, 6.211453182913829e-07
0, 222, 0, 6.282251661104965e-07
0, 223, 0, 2.974225878915604e-07
0, 224, 0, 2.28489597020598e-07
0, 225, 0, 2.645694507918961e-07
0, 226, 0, 4.461744822492619e-07
0, 227, 0, 3.45378992960832e-07
0, 228, 0, 1.436363845641608e-07
0, 229, 0, 1.740463630994782e-07
0, 230, 0, 2.117623267849922e-07
0, 231, 0, 2.569383639183798e-07
0, 232, 0, 1.40289614591893e-07
0, 233, 0, 2.093455861995608e-07
0, 234, 0, 3.180821011028456e-07
0, 235, 0, 1.422914834847688e-07
0, 236, 0, 1.230082773417962e-07
0, 237, 0, 2.865009491870296e-07
0, 238, 0, 9.409219359213239e-08
0, 239, 0, 2.918664847584296e-07
0, 240, 0, 1.083953975467011e-07
0, 241, 0, 1.135126836970812e-07
0, 242, 0, 2.945546100363572e-07
0, 243, 0, 2.140532586736299e-07
0, 244, 0, 2.50431099857451e-07
0, 245, 0, 2.641107528233988e-07
0, 246, 0, 1.321600393566769e-07
0, 247, 0, 1.242956813030105e-07
0, 248, 0, 4.620322613391181e-07
0, 249, 0, 7.150625691565438e-08
0, 250, 0, 1.132435372142027e-07
0, 251, 0, 1.830889004850178e-07
0, 252, 0, 1.708075956230459e-07
0, 253, 0, 9.927787658625675e-08
0, 254, 0, 1.306490133856641e-07
0, 255, 0, 6.559540821626797e-08
0, 256, 0, 5.221960464041331e-08
0, 257, 0, 1.304222649878284e-07
0, 258, 0, 3.60775572971761e-07
0, 259, 0, 2.282300499700796e-07
0, 260, 0, 1.674797687201135e-07
0, 261, 0, 2.121347080219493e-07
0, 262, 0, 2.012827451380872e-07
0, 263, 0, 8.006605867194594e-08
0, 264, 0, 8.015275909656339e-08
0, 265, 0, 1.740117596682467e-07
0, 266, 0, 8.130071904588476e-08
0, 267, 0, 4.577388423854245e-08
0, 268, 0, 6.648240002959938e-08
0, 269, 0, 1.786330869890662e-07
0, 270, 0, 9.113425676332554e-07
0, 271, 0, 7.982671235140515e-08
0, 272, 0, 4.152416721581176e-08
0, 273, 0, 6.86948666839271e-08
0, 274, 0, 2.16994692436856e-07
0, 275, 0, 5.109363243605003e-08
0, 276, 0, 1.182461559778858e-07
0, 277, 0, 6.228835047750181e-08
0, 278, 0, 9.275827750343524e-08
0, 279, 0, 5.567747507484455e-08
0, 280, 0, 6.646939709753497e-08
0, 281, 0, 5.992760776507566e-08
0, 282, 0, 4.519808172176454e-08
0, 283, 0, 3.795925707095194e-08
0, 284, 0, 2.055968053582546e-07
0, 285, 0, 1.136489800046547e-07
0, 286, 0, 1.073336122203727e-07
0, 287, 0, 6.769064953005e-08
0, 288, 0, 3.059642139646712e-08
0, 289, 0, 1.383427701284745e-07
0, 290, 0, 1.250606231906204e-07
0, 291, 0, 1.097428707907966e-07
0, 292, 0, 5.326943508521254e-08
0, 293, 0, 7.903430088163077e-08
0, 294, 0, 3.517781266282327e-08
0, 295, 0, 1.356222423254394e-08
0, 296, 0, 2.607248461572453e-08
0, 297, 0, 1.090549233140337e-07
0, 298, 0, 3.044564493848156e-07
0, 299, 0, 2.790719690892729e-07
1, 0, 0, 9.041090009986874e-08
1, 1, 0, 4.994886282361222e-08
1, 2, 0, 1.22125044299537e-07
1, 3, 0, 7.698092474583973e-08
1, 4, 0, 1.699405345334526e-07
1, 5, 0, 4.920178753309301e-07
1, 6, 0, 8.544462559711974e-08
1, 7, 0, 9.038399184646551e-08
1, 8, 0, 8.918086535913972e-08
1, 9, 0, 9.268525502648117e-08
1, 10, 0, 3.140040405469335e-08
1, 11, 0, 9.915426346651657e-08
1, 12, 0, 5.279182246908931e-08
1, 13, 0, 1.135248695049995e-07
1, 14, 0, 1.140134173738261e-07
1, 15, 0, 3.408579232200282e-07
1, 16, 0, 1.059002343595239e-07
1, 17, 0, 1.426547697747083e-07
1, 18, 0, 1.485461353922801e-07
1, 19, 0, 1.490819130367527e-07
1, 20, 0, 1.367765776194574e-07
1, 21, 0, 5.892120213957242e-08
1, 22, 0, 2.241988639184456e-08
1, 23, 0, 1.952550121586683e-07
1, 24, 0, 6.16144433251975e-08
1, 25, 0, 4.750052440272157e-08
1, 26, 0, 7.284798186901753e-08
1, 27, 0, 9.407887091583689e-08
1, 28, 0, 1.432161411685229e-07
1, 29, 0, 3.763186668948038e-07
1, 30, 0, 1.067187795911195e-07
1, 31, 0, 1.043165198666429e-07
1, 32, 0, 2.451858449603606e-07
1, 33, 0, 1.35250516564156e-07
1, 34, 0, 2.441609581183002e-07
1, 35, 0, 8.078646374087839e-08
1, 36, 0, 8.141186214061236e-08
1, 37, 0, 8.048093036450155e-08
1, 38, 0, 2.695673515518138e-07
1, 39, 0, 3.905493031197693e-07
1, 40, 0, 2.963662382171606e-07
1, 41, 0, 1.249112244749995e-07
1, 42, 0, 8.623130298701653e-08
1, 43, 0, 2.064767983256388e-07
1, 44, 0, 1.959746782631555e-07
1, 45, 0, 2.214743943795838e-07
1, 46, 0, 4.691862542927083e-08
1, 47, 0, 5.479541442809932e-08
1, 48, 0, 3.564805126643478e-07
1, 49, 0, 2.924947573035297e-08
1, 50, 0, 8.446905752634848e-08
1, 51, 0, 7.431332704754823e-08
1, 52, 0, 8.301562104406912e-08
1, 53, 0, 1.05665733940441e-07
1, 54, 0, 2.206734279752709e-07
1, 55, 0, 9.182140559005347e-08
1, 56, 0, 9.080499552283072e-08
1, 57, 0, 1.512879919118859e-07
1, 58, 0, 6.131349294946631e-08
1, 59, 0, 8.600314060913661e-08
1, 60, 0, 2.129920630977722e-07
1, 61, 0, 2.777935037556745e-07
1, 62, 0, 3.027955983725406e-07
1, 63, 0, 1.698701339591935e-07
1, 64, 0, 1.740143744655143e-07
1, 65, 0, 2.179352946996005e-07
1, 66, 0, 3.563764749969778e-08
1, 67, 0, 1.501511661672339e-07
1, 68, 0, 2.008691808441654e-07
1, 69, 0, 2.373466259086854e-07
1, 70, 0, 3.413760651937991e-08
1, 71, 0, 4.571007536924299e-07
1, 72, 0, 7.375164301492987e-08
1, 73, 0, 1.865300873760134e-07
1, 74, 0, 3.941603097246116e-07
1, 75, 0, 2.227417752465044e-07
1, 76, 0, 1.292896456561721e-07
1, 77, 0, 5.704511707449456e-08
1, 78, 0, 6.029689814113226e-08
1, 79, 0, 4.810258857901317e-08
1, 80, 0, 3.172914944116201e-07
1, 81, 0, 1.313893847054715e-07
1, 82, 0, 2.933248026693036e-07
1, 83, 0, 2.466890407504252e-07
1, 84, 0, 1.160239193609414e-07
1, 85, 0, 1.923826147276486e-07
1, 86, 0, 4.383271914321085e-07
1, 87, 0, 2.377190781999161e-07
1, 88, 0, 1.545825369930753e-07
1, 89, 0, 1.42225459853762e-07
1, 90, 0, 2.704245787299442e-07
1, 91, 0, 2.008355153293451e-07
1, 92, 0, 2.341860749766056e-07
1, 93, 0, 1.285775113046839e-07
1, 94, 0, 2.197084398858351e-07
1, 95, 0, 3.572279467789485e-07
1, 96, 0, 3.292137193966482e-07
1, 97, 0, 1.791912467297152e-07
1, 98, 0, 1.413935564187341e-07
1, 99, 0, 2.043632179038468e-07
1, 100, 0, 2.853018941095797e-07
1, 101, 0, 4.136737175031158e-07
1, 102, 0, 2.444695041958767e-07
1, 103, 0, 2.031240882161001e-07
1, 104, 0, 7.254516276589129e-07
1, 105, 0, 2.584363016921998e-07
1, 106, 0, 2.883701029077201e-07
1, 107, 0, 3.661887433281663e-07
1, 108, 0, 2.755037655788328e-07
1, 109, 0, 1.661693431742606e-07
1, 110, 0, 2.064469413198822e-07
1, 111, 0, 3.373998538336309e-07
1, 112, 0, 1.537750620173028e-07
1, 113, 0, 2.558309972755524e-07
1, 114, 0, 2.948823123460897e-07
1, 115, 0, 3.281003841948404e-07
1, 116, 0, 7.255135869854712e-07
1, 117, 0, 1.018615648717969e-06
1, 118, 0, 1.427337110726512e-07
1, 119, 0, 1.562979718983115e-07
1, 120, 0, 2.091418309646542e-07
1, 121, 0, 2.375154366518473e-07
1, 122, 0, 3.691265817451495e-07
1, 123, 0, 2.25405003106971e-07
1, 124, 0, 4.461603282379656e-07
1, 125, 0, 4.233594381730654e-07
1, 126, 0, 1.309063009102829e-07
1, 127, 0, 2.125750597770093e-07
1, 128, 0, 3.262637733314477e-07
1, 129, 0, 3.422433678679226e-07
1, 130, 0, 4.101883916973748e-07
1, 131, 0, 2.774987990505906e-07
1, 132, 0, 1.510746443500466e-07
1, 133, 0, 2.480911689417553e-07
1, 134, 0, 3.456962645032036e-07
1, 135, 0, 1.747323352674357e-07
1, 136, 0, 4.043935462050285e-07
1, 137, 0, 2.729326524786302e-07
1, 138, 0, 1.960311237780843e-07
1, 139, 0, 3.299848003734951e-07
1, 140, 0, 2.445053723931778e-07
1, 141, 0, 3.562344090823899e-07
1, 142, 0, 4.876608272752492e-07
1, 143, 0, 1.995282730149484e-07
1, 144, 0, 2.605825386581273e-07
1, 145, 0, 3.507223595988762e-07
1, 146, 0, 2.96426691193119e-07
1, 147, 0, 1.211620315189066e-07
1, 148, 0, 1.678799179671842e-07
1, 149, 0, 3.520842142279434e-07
1, 150, 0, 1.578872144136767e-07
1, 151, 0, 4.520093170867767e-07
1, 152, 0, 6.874420250824187e-07
1, 153, 0, 2.772441405340942e-07
1, 154, 0, 3.845587173145759e-07
1, 155, 0, 3.094390024216409e-07
1, 156, 0, 2.972113009036548e-07
1, 157, 0, 4.415473995322827e-07
1, 158, 0, 5.214997145230882e-07
1, 159, 0, 2.274028645388171e-07
1, 160, 0, 2.987634388773586e-07
1, 161, 0, 2.514658206109743e-07
1, 162, 0, 1.294139337915112e-07
1, 163, 0, 2.685293054582871e-07
1, 164, 0, 2.030565440236387e-07
1, 165, 0, 2.056073924450175e-07
1, 166, 0, 2.245478185614047e-07
1, 167, 0, 2.802485994379822e-07
1, 168, 0, 6.370222536133952e-07
1, 169, 0, 2.434242674098641e-07
1, 170, 0, 2.07138185714939e-07
1, 171, 0, 8.129958359859302e-07
1, 172, 0, 4.560781121654145e-07
1, 173, 0, 2.964494854040822e-07
1, 174, 0, 5.668073299602838e-07
1, 175, 0, 4.978608103556326e-07
1, 176, 0, 2.754641457158868e-07
1, 177, 0, 3.070021534767875e-07
1, 178, 0, 3.522237648212467e-07
1, 179, 0, 2.60907938809396e-07
1, 180, 0, 2.971286221509217e-07
1, 181, 0, 2.141214565654082e-07
1, 182, 0, 2.954989781756012e-07
1, 183, 0, 2.652043633588619e-07
1, 184, 0, 2.595859029952408e-07
1, 185, 0, 3.913914383701922e-07
1, 186, 0, 3.201448919298855e-07
1, 187, 0, 8.025872944017465e-07
1, 188, 0, 2.310986388920355e-07
1, 189, 0, 2.337026501209039e-07
1, 190, 0, 3.027924719845032e-07
1, 191, 0, 2.4974954726531e-07
1, 192, 0, 2.994000283251808e-07
1, 193, 0, 2.085864423406747e-07
1, 194, 0, 2.124706526274167e-07
1, 195, 0, 3.998414968009456e-07
1, 196, 0, 2.894612691761722e-07
1, 197, 0, 2.794228066704818e-07
1, 198, 0, 3.555199441507284e-07
1, 199, 0, 3.55416773345496e-07
1, 200, 0, 1.229304018579569e-07
1, 201, 0, 9.488623931019902e-08
1, 202, 0, 4.241773581270536e-07
1, 203, 0, 4.554198369532969e-07
1, 204, 0, 2.934311851277016e-07
1, 205, 0, 2.199573003736077e-07
1, 206, 0, 2.931106450887455e-07
1, 207, 0, 6.870296829220024e-07
1, 208, 0, 3.469727971605607e-07
1, 209, 0, 1.434429321989228e-07
1, 210, 0, 2.209672800290718e-07
1, 211, 0, 5.315207545208978e-07
1, 212, 0, 1.868761643208927e-07
1, 213, 0, 1.966414657772475e-07
1, 214, 0, 1.574808976556596e-07
1, 215, 0, 3.397204295652045e-07
1, 216, 0, 4.795728614226391e-07
1, 217, 0, 3.826185661637282e-07
1, 218, 0, 2.988933545111649e-07
1, 219, 0, 2.447971780838998e-07
1, 220, 0, 2.091031490181194e-07
1, 221, 0, 3.482099089069379e-07
1, 222, 0, 2.950384612177004e-07
1, 223, 0, 3.762170308618806e-07
1, 224, 0, 1.840263479380155e-07
1, 225, 0, 1.124657487139302e-07
1, 226, 0, 3.889575168614101e-07
1, 227, 0, 2.013187554439355e-07
1, 228, 0, 3.857130081996729e-07
1, 229, 0, 2.63947327994174e-07
1, 230, 0, 8.262102824119211e-07
1, 231, 0, 1.102674431763262e-07
1, 232, 0, 2.287713840587458e-07
1, 233, 0, 2.875255802337051e-07
1, 234, 0, 2.466713340254501e-07
1, 235, 0, 1.280081391996646e-07
1, 236, 0, 1.365434911804186e-07
1, 237, 0, 2.39073017382907e-07
1, 238, 0, 1.459223142319388e-07
1, 239, 0, 4.4711066493619e-07
1, 240, 0, 1.446107233959992e-07
1, 241, 0, 1.01667254170934e-07
1, 242, 0, 1.644670106770718e-07
1, 243, 0, 1.702322123264821e-07
1, 244, 0, 1.966114098195249e-07
1, 245, 0, 4.244213016590948e-07
1, 246, 0, 1.631404558111171e-07
1, 247, 0, 3.633012397585844e-07
1, 248, 0, 8.038641396979074e-08
1, 249, 0, 1.757954350978252e-07
1, 250, 0, 1.216449305729839e-07
1, 251, 0, 1.534519071810792e-07
1, 252, 0, 2.019001499320439e-07
1, 253, 0, 1.209081830211289e-07
1, 254, 0, 2.5143410198325e-07
1, 255, 0, 1.370142541645691e-07
1, 256, 0, 1.196873000708365e-07
1, 257, 0, 1.466141981154578e-07
1, 258, 0, 2.108555179347604e-07
1, 259, 0, 2.10760632057827e-07
1, 260, 0, 1.025567257784132e-07
1, 261, 0, 1.027439466838587e-07
1, 262, 0, 4.778172169039863e-08
1, 263, 0, 9.317760429894406e-08
1, 264, 0, 1.117609969014666e-07
1, 265, 0, 1.996212404264952e-07
1, 266, 0, 3.438913154241163e-07
1, 267, 0, 1.430999674312261e-07
1, 268, 0, 6.583675116189625e-08
1, 269, 0, 1.559868962885957e-07
1, 270, 0, 1.472016037951107e-07
1, 271, 0, 1.037993584418473e-07
1, 272, 0, 5.825421212080073e-08
1, 273, 0, 2.766445845736598e-07
1, 274, 0, 3.376611061867152e-07
1, 275, 0, 4.18561292292452e-08
1, 276, 0, 2.231827096466077e-07
1, 277, 0, 7.505525445594685e-08
1, 278, 0, 1.556048374595775e-07
1, 279, 0, 2.489753399004258e-07
1, 280, 0, 1.080297735711611e-07
1, 281, 0, 7.899451759385556e-08
1, 282, 0, 6.573212374405557e-08
1, 283, 0, 1.337494666131533e-07
1, 284, 0, 6.24624050260536e-08
1, 285, 0, 1.728446079596324e-07
1, 286, 0, 1.680365500078551e-07
1, 287, 0, 9.935586575693378e-08
1, 288, 0, 1.528661925931374e-07
1, 289, 0, 4.710799572649194e-08
1, 290, 0, 4.577366397029436e-08
1, 291, 0, 1.082643663607996e-07
1, 292, 0, 3.373954982066607e-08
1, 293, 0, 2.470600577453297e-07
1, 294, 0, 8.500811077283288e-08
1, 295, 0, 4.049466539868263e-08
1, 296, 0, 4.897278316207121e-08
1, 297, 0, 5.624918486546449e-08
1, 298, 0, 1.420985284994458e-07
1, 299, 0, 7.108355930540711e-07
2, 0, 0, 1.399626512466057e-07
2, 1, 0, 1.039624208942769e-07
2, 2, 0, 5.937714320225496e-08
2, 3, 0, 3.81127200910214e-08
2, 4, 0, 1.263157543007765e-07
2, 5, 0, 6.173984843371727e-07
2, 6, 0, 3.462516531271831e-07
2, 7, 0, 1.649092524758089e-07
2, 8, 0, 5.940927749747971e-08
2, 9, 0, 1.1009834821607e-07
2, 10, 0, 6.654647677351022e-08
2, 11, 0, 1.107503599939719e-08
2, 12, 0, 4.635267103481056e-08
2, 13, 0, 4.035760525766818e-08
2, 14, 0, 1.845666162125781e-07
2, 15, 0, 1.893677818998185e-07
2, 16, 0, 2.516751465009293e-07
2, 17, 0, 2.549657551753626e-07
2, 18, 0, 5.320807261455229e-08
2, 19, 0, 3.039338025700999e-08
2, 20, 0, 3.125741798726267e-08
2, 21, 0, 1.255056645277364e-07
2, 22, 0, 2.582123137528924e-08
2, 23, 0, 1.193044738556637e-07
2, 24, 0, 1.084462297740174e-07
2, 25, 0, 3.993307018390624e-08
2, 26, 0, 2.67602757730856e-08
2, 27, 0, 6.265565133389828e-08
2, 28, 0, 5.105775002789414e-08
2, 29, 0, 3.529997272266883e-08
2, 30, 0, 2.249760910899568e-07
2, 31, 0, 1.818235517703215e-07
2, 32, 0, 2.057231540675275e-08
2, 33, 0, 6.551033493451541e-08
2, 34, 0, 1.42369117384078e-07
2, 35, 0, 2.36988128676785e-07
2, 36, 0, 4.778218567480508e-07
2, 37, 0, 1.309868764565181e-07
2, 38, 0, 3.329865876366966e-07
2, 39, 0, 1.288461817239295e-07
2, 40, 0, 2.556809306497598e-07
2, 41, 0, 1.182743289973587e-07
2, 42, 0, 7.179009031688111e-08
2, 43, 0, 1.569231073972333e-07
2, 44, 0, 2.115685902026598e-07
2, 45, 0, 1.597883994008953e-07
2, 46, 0, 1.202842838665674e-07
2, 47, 0, 1.06900436946944e-07
2, 48, 0, 1.513561329602453e-07
2, 49, 0, 5.029223260066829e-08
2, 50, 0, 3.021306582695615e-08
2, 51, 0, 2.40070079371435e-07
2, 52, 0, 4.344903103969955e-08
2, 53, 0, 2.333998310177776e-07
2, 54, 0, 1.170825711938051e-07
2, 55, 0, 3.409035542745187e-08
2, 56, 0, 4.609046655446036e-08
2, 57, 0, 3.047980214887502e-07
2, 58, 0, 6.914646633049415e-07
2, 59, 0, 1.008744376918003e-07
2, 60, 0, 1.313825066517893e-07
2, 61, 0, 1.500682884625348e-07
2, 62, 0, 3.093817610988481e-07
2, 63, 0, 3.26127491234729e-07
2, 64, 0, 3.554818874818011e-07
2, 65, 0, 2.809284751492669e-07
2, 66, 0, 4.257217369740829e-07
2, 67, 0, 4.113314133746826e-08
2, 68, 0, 6.453552003904406e-08
2, 69, 0, 5.76615697411853e-08
2, 70, 0, 1.60712076535674e-07
2, 71, 0, 1.080433520428414e-07
2, 72, 0, 1.527358932662537e-07
2, 73, 0, 1.816555510458784e-07
2, 74, 0, 1.99251857679883e-07
2, 75, 0, 1.934909050760325e-07
2, 76, 0, 1.78228475533615e-07
2, 77, 0, 4.418465948674566e-08
2, 78, 0, 1.497367350111745e-07
2, 79, 0, 5.333058652468026e-07
2, 80, 0, 2.14963591815831e-07
2, 81, 0, 5.64675950442961e-08
2, 82, 0, 5.251476764556173e-08
2, 83, 0, 3.629723437370558e-07
2, 84, 0, 2.919135795309558e-07
2, 85, 0, 1.061236645227837e-07
2, 86, 0, 2.482412639892573e-07
2, 87, 0, 5.451388318533645e-08
2, 88, 0, 1.458210761029477e-07
2, 89, 0, 1.984847131097922e-07
2, 90, 0, 1.18992346642699e-07
2, 91, 0, 1.751990907905565e-07
2, 92, 0, 4.573331580104423e-07
2, 93, 0, 1.721242455232641e-07
2, 94, 0, 1.884802998119994e-07
2, 95, 0, 2.748565464116837e-07
2, 96, 0, 2.43564386437356e-07
2, 97, 0, 2.419384657059709e-07
2, 98, 0, 3.717092340593808e-07
2, 99, 0, 3.111674402589415e-07
2, 100, 0, 2.745222502653633e-07
2, 101, 0, 3.37427593422035e-07
2, 102, 0, 4.30821359032052e-07
2, 103, 0, 3.449996768267738e-07
2, 104, 0, 1.701046556945585e-07
2, 105, 0, 1.765051536040119e-07
2, 106, 0, 1.929323758531609e-07
2, 107, 0, 3.499409331197967e-07
2, 108, 0, 2.233386879879617e-07
2, 109, 0, 1.819030472915983e-07
2, 110, 0, 1.937937952334323e-07
2, 111, 0, 2.567574597378552e-07
2, 112, 0, 3.150129828100035e-07
2, 113, 0, 2.021502751858861e-07
2, 114, 0, 2.375078054228652e-07
2, 115, 0, 2.064521282818532e-07
2, 116, 0, 3.8425912407547e-07
2, 117, 0, 4.777983804160613e-07
2, 118, 0, 2.825587159804854e-07
2, 119, 0, 1.773537974258943e-07
2, 120, 0, 2.585786660347367e-07
2, 121, 0, 1.618149525484114e-07
2, 122, 0, 1.906451103650397e-07
2, 123, 0, 1.291171827233484e-07
2, 124, 0, 1.848623725209109e-07
2, 125, 0, 4.313673116485006e-07
2, 126, 0, 3.438679527789645e-07
2, 127, 0, 2.045342171186348e-07
2, 128, 0, 1.679337344739906e-07
2, 129, 0, 2.782195451800362e-07
2, 130, 0, 3.558971854999982e-07
2, 131, 0, 3.012017941728118e-07
2, 132, 0, 3.336434417633427e-07
2, 133, 0, 3.076513053201779e-07
2, 134, 0, 4.300088392028556e-07
2, 135, 0, 4.350845017597749e-07
2, 136, 0, 3.021642953626724e-07
2, 137, 0, 4.14424221162335e-07
2, 138, 0, 2.747493681454216e-07
2, 139, 0, 2.848001656730048e-07
2, 140, 0, 4.420881509759056e-07
2, 141, 0, 2.760880022378842e-07
2, 142, 0, 3.83480568189043e-07
2, 143, 0, 3.996809425643733e-07
2, 144, 0, 3.679464839478896e-07
2, 145, 0, 3.043506637823157e-07
2, 146, 0, 4.395419068714546e-07
2, 147, 0, 7.016899417067179e-07
2, 148, 0, 2.618490952954744e-07
2, 149, 0, 3.059424784623843e-07
2, 150, 0, 2.33702493801502e-07
2, 151, 0, 4.042794614633749e-07
2, 152, 0, 2.773800531485904e-07
2, 153, 0, 3.100454648574669e-07
2, 154, 0, 3.410247870760941e-07
2, 155, 0, 2.865729129553074e-07
2, 156, 0, 7.214327411020349e-07
2, 157, 0, 2.809506156609132e-07
2, 158, 0, 4.410342171468074e-07
2, 159, 0, 3.464473650183209e-07
2, 160, 0, 3.491860240956157e-07
2, 161, 0, 3.958687386784732e-07
2, 162, 0, 3.199498053163552e-07
2, 163, 0, 2.898739239753922e-07
2, 164, 0, 5.610047537629725e-07
2, 165, 0, 3.143050264498015e-07
2, 166, 0, 6.545280371028639e-07
2, 167, 0, 2.258199458538002e-07
2, 168, 0, 3.538819157711259e-07
2, 169, 0, 4.374713569177402e-07
2, 170, 0, 4.024306576866366e-07
2, 171, 0, 2.928695437276474e-07
2, 172, 0, 7.513260698033264e-07
2, 173, 0, 3.915033062185103e-07
2, 174, 0, 3.889704487392009e-07
2, 175, 0, 1.002452222564898e-06
2, 176, 0, 6.978898454690352e-07
2, 177, 0, 2.822053772888466e-07
2, 178, 0, 2.756859487362817e-07
2, 179, 0, 1.587121687407489e-07
2, 180, 0, 2.152951594780461e-07
2, 181, 0, 5.889250473956054e-07
2, 182, 0, 1.581060473654361e-07
2, 183, 0, 2.591609984392562e-07
2, 184, 0, 2.845073368007434e-07
2, 185, 0, 4.468943188840058e-07
2, 186, 0, 2.886298489102046e-07
2, 187, 0, 2.57489574551073e-07
2, 188, 0, 2.788154631616635e-07
2, 189, 0, 1.729817284967794e-07
2, 190, 0, 2.670944354576932e-07
2, 191, 0, 5.493191679306619e-07
2, 192, 0, 2.576853148639202e-07
2, 193, 0, 1.734498198402434e-07
2, 194, 0, 4.141151919156982e-07
2, 195, 0, 2.809491093103134e-07
2, 196, 0, 3.236556267438573e-07
2, 197, 0, 1.653180703442558e-07
2, 198, 0, 3.480186023807619e-07
2, 199, 0, 4.121724828110018e-07
2, 200, 0, 3.940024839721445e-07
2, 201, 0, 2.07377794936292e-07
2, 202, 0, 1.513285354803884e-07
2, 203, 0, 3.626636555509322e-07
2, 204, 0, 2.903035181134328e-07
2, 205, 0, 2.773066114514222e-07
2, 206, 0, 3.472239029633784e-07
2, 207, 0, 3.986285150858748e-07
2, 208, 0, 3.35788939764825e-07
2, 209, 0, 2.647267081101745e-07
2, 210, 0, 2.148388773548504e-07
2, 211, 0, 1.911616323013732e-07
2, 212, 0, 2.411339892205433e-07
2, 213, 0, 2.428680545563111e-07
2, 214, 0, 1.994198157717619e-07
2, 215, 0, 4.669591646688787e-07
2, 216, 0, 5.555967277359741e-07
2, 217, 0, 2.749917769051535e-07
2, 218, 0, 2.494392106200394e-07
2, 219, 0, 1.899276469430333e-07
2, 220, 0, 2.855196896689449e-07
2, 221, 0, 5.485668452820391e-07
2, 222, 0, 4.115874787657958e-07
2, 223, 0, 4.165322309290787e-07
2, 224, 0, 1.869821062427945e-07
2, 225, 0, 2.121845170677261e-07
2, 226, 0, 3.97258105522269e-07
2, 227, 0, 2.221721331352455e-07
2, 228, 0, 3.396812360279e-07
2, 229, 0, 3.347045662849268e-07
2, 230, 0, 3.037407907413581e-07
2, 231, 0, 2.146152269233426e-07
2, 232, 0, 2.468001412125886e-07
2, 233, 0, 3.206486667295394e-07
2, 234, 0, 2.684897992821789e-07
2, 235, 0, 1.412501120512388e-07
2, 236, 0, 1.040075829905618e-07
2, 237, 0, 1.097028246022091e-07
2, 238, 0, 1.468612822463911e-07
2, 239, 0, 1.83874334425127e-07
2, 240, 0, 1.739615811402473e-07
2, 241, 0, 8.208493795791583e-08
2, 242, 0, 1.245676770622595e-07
2, 243, 0, 9.539910905687066e-08
2, 244, 0, 2.105559246956545e-07
2, 245, 0, 2.738264583967975e-07
2, 246, 0, 5.196496886128443e-07
2, 247, 0, 1.497589039445302e-07
2, 248, 0, 1.091088321913958e-07
2, 249, 0, 2.962788414606621e-07
2, 250, 0, 1.712719068791557e-07
2, 251, 0, 1.152019635242141e-07
2, 252, 0, 1.158130373823951e-07
2, 253, 0, 2.290980773977935e-07
2, 254, 0, 3.142315847526334e-07
2, 255, 0, 1.614504014924023e-07
2, 256, 0, 2.277307942222251e-07
2, 257, 0, 1.996148171201639e-07
2, 258, 0, 1.986363287187487e-07
2, 259, 0, 1.443998058903162e-07
2, 260, 0, 1.69799051263908e-07
2, 261, 0, 9.90780577581063e-08
2, 262, 0, 6.521415230054117e-08
2, 263, 0, 5.168250893916593e-08
2, 264, 0, 1.917250074257026e-07
2, 265, 0, 1.105188474070928e-07
2, 266, 0, 2.05992279234124e-07
2, 267, 0, 1.934920135227003e-07
2, 268, 0, 1.314796094220583e-07
2, 269, 0, 1.551750159478615e-07
2, 270, 0, 2.436767374547344e-07
2, 271, 0, 1.345038072031457e-07
2, 272, 0, 3.975302220737831e-08
2, 273, 0, 1.308062280713784e-07
2, 274, 0, 1.530342785827088e-07
2, 275, 0, 9.61539043942139e-08
2, 276, 0, 1.736271855179439e-07
2, 277, 0, 9.382673482605242e-08
2, 278, 0, 1.298821672435224e-07
2, 279, 0, 4.802320674457405e-08
2, 280, 0, 5.737039288078449e-08
2, 281, 0, 1.382101260105628e-07
2, 282, 0, 1.449736686254255e-07
2, 283, 0, 3.004359072633633e-08
2, 284, 0, 8.370835757887107e-08
2, 285, 0, 1.282154045156858e-07
2, 286, 0, 1.148193575772893e-07
2, 287, 0, 1.723317240021061e-07
2, 288, 0, 1.228702615208022e-07
2, 289, 0, 2.116253199346829e-07
2, 290, 0, 4.894138072586429e-08
2, 291, 0, 5.139179393154336e-08
2, 292, 0, 4.479457871298109e-08
2, 293, 0, 1.592686516005415e-07
2, 294, 0, 1.713516581958174e-07
2, 295, 0, 6.85229082364458e-08
2, 296, 0, 3.767491207895546e-08
2, 297, 0, 1.111216292315476e-07
2, 298, 0, 6.261412721642046e-08
2, 299, 0, 3.609102350310422e-07
3, 0, 0, 1.113816310294169e-07
3, 1, 0, 1.426124924819305e-07
3, 2, 0, 2.351941361666832e-07
3, 3, 0, 3.378955000243877e-07
3, 4, 0, 4.38389292867214e-07
3, 5, 0, 2.202029207865053e-07
3, 6, 0, 1.42883266107674e-07
3, 7, 0, 7.295484039104849e-08
3, 8, 0, 3.284383964796689e-08
3, 9, 0, 1.754299177036955e-07
3, 10, 0, 4.068539993795639e-08
3, 11, 0, 6.153096165917304e-08
3, 12, 0, 2.467079518453374e-08
3, 13, 0, 4.465063341285713e-08
