# TOPAS Version: 3.9
# Parameter File: data/topas/input/plan_1b/main_2GySOBP.txt
# Results for scorer: Scoring_protonD_XZBox
# Scored in component: ScoringZXBox
# X in 300 bins of 0.0666667 cm
# Y in 1 bin  of 20 cm
# Z in 300 bins of 0.0666667 cm
# DoseToWater ( Gy ) : Sum   
0, 0, 0, 1.505387956513005e-07
0, 0, 1, 7.580657523931222e-08
0, 0, 2, 5.703146399582693e-08
0, 0, 3, 4.892619287488742e-08
0, 0, 4, 4.488795468660101e-07
0, 0, 5, 8.156030872896736e-08
0, 0, 6, 4.631284866718488e-08
0, 0, 7, 4.629397665212309e-08
0, 0, 8, 3.78230197384255e-07
0, 0, 9, 7.557277825753772e-08
0, 0, 10, 5.857652851659623e-08
0, 0, 11, 5.449488327258223e-08
0, 0, 12, 7.763625120560391e-08
0, 0, 13, 1.627136612114555e-07
0, 0, 14, 7.204484120393317e-08
0, 0, 15, 2.274311867722645e-07
0, 0, 16, 1.210793385553188e-07
0, 0, 17, 4.447298707077607e-08
0, 0, 18, 7.226067282317672e-07
0, 0, 19, 3.164037991609803e-07
0, 0, 20, 1.027542992915187e-07
0, 0, 21, 6.47537419240507e-08
0, 0, 22, 7.355838960165784e-08
0, 0, 23, 6.305660349426034e-08
0, 0, 24, 7.229508014461317e-08
0, 0, 25, 5.786158041587441e-08
0, 0, 26, 6.247350370358618e-08
0, 0, 27, 7.06290634866491e-08
0, 0, 28, 1.497680131024026e-07
0, 0, 29, 6.597139901032278e-08
0, 0, 30, 6.527450580051664e-08
0, 0, 31, 2.969025274524029e-07
0, 0, 32, 1.697566318625832e-07
0, 0, 33, 4.639264616912442e-08
0, 0, 34, 8.300614240397408e-08
0, 0, 35, 9.555770930091967e-08
0, 0, 36, 9.254301147620936e-08
0, 0, 37, 1.810692253911839e-07
0, 0, 38, 8.682711438723345e-08
0, 0, 39, 3.128653816020233e-07
0, 0, 40, 7.296787174482233e-08
0, 0, 41, 6.536690477787488e-08
0, 0, 42, 9.909815901210095e-08
0, 0, 43, 3.802456092216744e-07
0, 0, 44, 5.183713938095025e-07
0, 0, 45, 9.53308116891094e-08
0, 0, 46, 1.028501870337095e-07
0, 0, 47, 1.197430492538842e-07
0, 0, 48, 1.292298748012399e-07
0, 0, 49, 1.108113636405506e-07
0, 0, 50, 2.12075647709753e-07
0, 0, 51, 1.73987345419846e-07
0, 0, 52, 3.996818236373656e-07
0, 0, 53, 2.171374546833249e-07
0, 0, 54, 1.468361574552546e-07
0, 0, 55, 4.011588146113354e-07
0, 0, 56, 3.367258614161983e-07
0, 0, 57, 1.26067533301466e-07
0, 0, 58, 1.568244272220909e-07
0, 0, 59, 1.417694193150965e-07
0, 0, 60, 1.461910272837486e-07
0, 0, 61, 1.215043567981411e-07
0, 0, 62, 1.531170710222796e-07
0, 0, 63, 5.837862886437506e-07
0, 0, 64, 1.739544757128897e-07
0, 0, 65, 1.470840516049066e-07
0, 0, 66, 2.018257845293192e-07
0, 0, 67, 1.184152083055778e-07
0, 0, 68, 2.282924640439887e-07
0, 0, 69, 3.087026243520086e-07
0, 0, 70, 1.319018281265016e-07
0, 0, 71, 3.087444895299996e-07
0, 0, 72, 1.141101648727272e-07
0, 0, 73, 1.846004806793644e-07
0, 0, 74, 3.202756317932653e-07
0, 0, 75, 1.594702894180955e-07
0, 0, 76, 1.383115062481011e-07
0, 0, 77, 2.446226972097065e-07
0, 0, 78, 1.617216440763514e-07
0, 0, 79, 1.682832930782752e-07
0, 0, 80, 1.041914856614312e-07
0, 0, 81, 3.347942367781798e-07
0, 0, 82, 8.392853345640106e-08
0, 0, 83, 1.474102333531846e-07
0, 0, 84, 1.820804982344271e-07
0, 0, 85, 2.300612322869711e-07
0, 0, 86, 3.090946165684727e-07
0, 0, 87, 5.061255023974809e-07
0, 0, 88, 1.496946993029269e-07
0, 0, 89, 3.32889868559505e-07
0, 0, 90, 6.02102431912499e-07
0, 0, 91, 1.49319163256223e-07
0, 0, 92, 9.519129093860101e-07
0, 0, 93, 4.957933015248273e-07
0, 0, 94, 1.557742592694922e-07
0, 0, 95, 2.983231297548627e-07
0, 0, 96, 4.72036617793492e-07
0, 0, 97, 1.866099097469487e-07
0, 0, 98, 2.685958691017731e-07
0, 0, 99, 3.535171515522961e-07
0, 0, 100, 3.775139418848994e-07
0, 0, 101, 7.937321697681909e-07
0, 0, 102, 5.019973627895524e-07
0, 0, 103, 2.879125133858906e-07
0, 0, 104, 1.030663909773466e-07
0, 0, 105, 8.121567702801258e-07
0, 0, 106, 3.709300528953463e-07
0, 0, 107, 1.17325974713367e-07
0, 0, 108, 4.742945236557716e-07
0, 0, 109, 1.399138795932231e-07
0, 0, 110, 2.488752954832307e-07
0, 0, 111, 7.396282626359607e-07
0, 0, 112, 2.263987539663503e-07
0, 0, 113, 1.733289423100359e-07
0, 0, 114, 2.519882968954335e-07
0, 0, 115, 2.390504789673287e-07
0, 0, 116, 2.681204307464213e-07
0, 0, 117, 3.601210778469977e-07
0, 0, 118, 3.720528809481038e-07
0, 0, 119, 1.843714585447742e-07
0, 0, 120, 2.510395802346466e-07
0, 0, 121, 4.322967015468748e-07
0, 0, 122, 4.600035481416853e-07
0, 0, 123, 3.330816582547413e-07
0, 0, 124, 4.088586251782544e-07
0, 0, 125, 2.888076267026918e-07
0, 0, 126, 1.968195562085384e-07
0, 0, 127, 3.602406479785714e-07
0, 0, 128, 2.686182085653854e-07
0, 0, 129, 2.52759292607152e-07
0, 0, 130, 1.769739981227758e-07
0, 0, 131, 2.417431232970557e-07
0, 0, 132, 5.74642058381869e-07
0, 0, 133, 1.948636025872474e-07
0, 0, 134, 3.588215804484207e-07
0, 0, 135, 5.05915124904277e-07
0, 0, 136, 6.014419113853364e-07
0, 0, 137, 1.714029451704846e-07
0, 0, 138, 1.393845536767913e-07
0, 0, 139, 3.942911916965386e-07
0, 0, 140, 2.808030501455505e-07
0, 0, 141, 6.662173177574005e-07
0, 0, 142, 2.299970844887866e-07
0, 0, 143, 1.938478817464784e-07
0, 0, 144, 1.640736257968456e-07
0, 0, 145, 2.966901604395389e-07
0, 0, 146, 1.912581666374535e-07
0, 0, 147, 3.98326221784373e-07
0, 0, 148, 4.905470518679067e-07
0, 0, 149, 4.021042627755378e-07
0, 0, 150, 2.015084987760929e-07
0, 0, 151, 1.707888941382407e-07
0, 0, 152, 1.838383241192787e-07
0, 0, 153, 4.759592968639481e-07
0, 0, 154, 2.01524159137989e-07
0, 0, 155, 2.458061487686791e-07
0, 0, 156, 6.70076701680955e-07
0, 0, 157, 1.998925114321537e-07
0, 0, 158, 5.589548663920141e-07
0, 0, 159, 5.439486585601117e-07
0, 0, 160, 2.173745485833933e-07
0, 0, 161, 2.247059569526755e-07
0, 0, 162, 1.447134962972996e-07
0, 0, 163, 6.653655759691901e-07
0, 0, 164, 2.859360961338098e-07
0, 0, 165, 1.991499516407202e-07
0, 0, 166, 1.084915311366785e-06
0, 0, 167, 5.176636932446854e-07
0, 0, 168, 1.84261693902954e-07
0, 0, 169, 3.125891794297786e-07
0, 0, 170, 6.812981041548483e-07
0, 0, 171, 3.898239242516865e-07
0, 0, 172, 1.98303794718413e-07
0, 0, 173, 3.155520005293511e-07
0, 0, 174, 1.694840818800003e-07
0, 0, 175, 3.05492960706033e-07
0, 0, 176, 3.155272452204372e-07
0, 0, 177, 4.176202139660745e-07
0, 0, 178, 6.260315785766579e-07
0, 0, 179, 2.587244694041146e-07
0, 0, 180, 5.908534603804583e-07
0, 0, 181, 1.855467388622856e-07
0, 0, 182, 3.136231043754378e-07
0, 0, 183, 6.092964213166852e-07
0, 0, 184, 3.046536676265532e-07
0, 0, 185, 3.098691081504512e-07
0, 0, 186, 1.709320969212058e-07
0, 0, 187, 2.595380692582694e-07
0, 0, 188, 2.360710880111583e-07
0, 0, 189, 3.147096094835433e-07
0, 0, 190, 1.567454432915838e-07
0, 0, 191, 5.832253009430133e-07
0, 0, 192, 1.807841982781611e-07
0, 0, 193, 5.012801693737856e-07
0, 0, 194, 1.841630137278116e-07
0, 0, 195, 2.186770728940246e-07
0, 0, 196, 3.696132466757263e-07
0, 0, 197, 3.297621162801079e-07
0, 0, 198, 2.533648455482762e-07
0, 0, 199, 3.105296570993232e-07
0, 0, 200, 4.561706532513199e-07
0, 0, 201, 1.262584419237101e-07
0, 0, 202, 3.399061085929134e-07
0, 0, 203, 4.558241357699444e-07
0, 0, 204, 7.418735776809626e-07
0, 0, 205, 2.278470816463596e-07
0, 0, 206, 4.52764908231984e-07
0, 0, 207, 1.540094842766848e-07
0, 0, 208, 5.182528752811777e-07
0, 0, 209, 1.556095696741977e-07
0, 0, 210, 1.707964827346586e-07
0, 0, 211, 1.420241488858665e-07
0, 0, 212, 1.576520247681401e-07
0, 0, 213, 1.5572346967474e-07
0, 0, 214, 1.554221142896495e-07
0, 0, 215, 5.285099291540973e-07
0, 0, 216, 9.864216963251238e-07
0, 0, 217, 4.004235734100803e-07
0, 0, 218, 3.03786350741575e-07
0, 0, 219, 1.521061108178401e-07
0, 0, 220, 1.535422882170678e-07
0, 0, 221, 1.74096868477136e-07
0, 0, 222, 1.25765453162785e-07
0, 0, 223, 3.510820647534274e-07
0, 0, 224, 5.178027890906378e-07
0, 0, 225, 3.076448820138467e-07
0, 0, 226, 1.811255856409844e-07
0, 0, 227, 4.650403866435227e-07
0, 0, 228, 2.399786751539068e-07
0, 0, 229, 1.086621921331243e-07
0, 0, 230, 2.169835937593234e-07
0, 0, 231, 1.459171556916772e-07
0, 0, 232, 1.47208126577425e-07
0, 0, 233, 1.422812658802286e-07
0, 0, 234, 2.721856446896709e-07
0, 0, 235, 4.317652155805263e-07
0, 0, 236, 1.46233915643279e-07
0, 0, 237, 1.232333488587756e-07
0, 0, 238, 1.082841478705632e-07
0, 0, 239, 1.585580520213625e-07
0, 0, 240, 8.457089961666497e-08
0, 0, 241, 2.826957370416494e-07
0, 0, 242, 5.576965236286924e-07
0, 0, 243, 7.022706682846547e-08
0, 0, 244, 1.228534642905288e-07
0, 0, 245, 1.203873125632526e-07
0, 0, 246, 3.237692851598695e-07
0, 0, 247, 1.256284605233304e-07
0, 0, 248, 4.157509749802557e-07
0, 0, 249, 8.127312156602784e-08
0, 0, 250, 1.197441292788426e-07
0, 0, 251, 1.431802445495123e-07
0, 0, 252, 1.98275600382658e-07
0, 0, 253, 9.42616864563206e-08
0, 0, 254, 6.545745634412015e-08
0, 0, 255, 2.591093561932212e-07
0, 0, 256, 2.446804785449785e-07
0, 0, 257, 9.485220431315611e-08
0, 0, 258, 3.383843250048812e-07
0, 0, 259, 1.131642335394645e-07
0, 0, 260, 1.139273280159614e-07
0, 0, 261, 8.939397133644889e-08
0, 0, 262, 1.153069817405594e-07
0, 0, 263, 1.920411989431159e-07
0, 0, 264, 7.216379316332677e-08
0, 0, 265, 2.381680275220788e-07
0, 0, 266, 7.395274792543205e-08
0, 0, 267, 6.182679612720676e-08
0, 0, 268, 8.975267462574266e-08
0, 0, 269, 7.597768814093797e-08
0, 0, 270, 8.96277327910866e-08
0, 0, 271, 6.64784920445527e-08
0, 0, 272, 6.410066788475888e-08
0, 0, 273, 5.638283795406096e-08
0, 0, 274, 5.516747592082538e-08
0, 0, 275, 7.299920667946935e-08
0, 0, 276, 2.448641396313178e-07
0, 0, 277, 5.383082566368103e-07
0, 0, 278, 8.58567403838606e-08
0, 0, 279, 1.117450167953393e-07
0, 0, 280, 9.130886269304028e-08
0, 0, 281, 1.209884601394151e-07
0, 0, 282, 4.360156680149885e-08
0, 0, 283, 5.482676357360106e-08
0, 0, 284, 4.537355735578785e-08
0, 0, 285, 7.171733784616663e-08
0, 0, 286, 2.306019979414486e-07
0, 0, 287, 1.082412239838959e-07
0, 0, 288, 6.914604711028005e-08
0, 0, 289, 7.362814358202741e-08
0, 0, 290, 2.499559457191936e-07
0, 0, 291, 4.584955348718722e-08
0, 0, 292, 5.508245592977801e-08
0, 0, 293, 5.768448829712725e-08
0, 0, 294, 1.039075456787941e-07
0, 0, 295, 7.027811221860247e-08
0, 0, 296, 2.339586586685982e-07
0, 0, 297, 1.421088313691143e-07
0, 0, 298, 1.57683814450138e-07
0, 0, 299, 1.927398614043341e-07
1, 0, 0, 2.348222807313505e-07
1, 0, 1, 3.042712535261671e-07
1, 0, 2, 7.861318351842783e-08
1, 0, 3, 5.785228651689067e-08
1, 0, 4, 6.920060258153171e-08
1, 0, 5, 1.095069919188063e-07
1, 0, 6, 7.582688965612761e-08
1, 0, 7, 8.972448739541505e-08
1, 0, 8, 4.965266242606958e-08
1, 0, 9, 4.761101024541858e-07
1, 0, 10, 7.896700537912693e-08
1, 0, 11, 1.195410277432529e-07
1, 0, 12, 2.814341542034526e-07
1, 0, 13, 1.312194797264965e-07
1, 0, 14, 5.581527062759051e-08
1, 0, 15, 2.425713034881483e-07
1, 0, 16, 3.050135148896516e-07
1, 0, 17, 6.029727472878221e-08
1, 0, 18, 1.712448636226327e-07
1, 0, 19, 7.926687572989977e-08
1, 0, 20, 1.286942961087334e-07
1, 0, 21, 1.507196145666967e-07
1, 0, 22, 1.09846837403893e-07
1, 0, 23, 1.817294332795427e-07
1, 0, 24, 5.993529583747659e-08
1, 0, 25, 7.217762743039202e-08
1, 0, 26, 6.90092889499283e-08
1, 0, 27, 5.007341741247728e-08
1, 0, 28, 7.666596246735935e-08
1, 0, 29, 1.265685369844505e-07
1, 0, 30, 4.294990958442213e-07
1, 0, 31, 7.062759976861344e-08
1, 0, 32, 1.097922108783678e-07
1, 0, 33, 2.726171715039527e-07
1, 0, 34, 8.402115980743474e-08
1, 0, 35, 1.229725512530422e-07
1, 0, 36, 2.733825397172041e-07
1, 0, 37, 9.684449508995385e-08
1, 0, 38, 1.311491217848015e-07
1, 0, 39, 7.769426701997872e-08
1, 0, 40, 9.632559283545561e-08
1, 0, 41, 3.993063302232258e-08
1, 0, 42, 5.373233875616279e-07
1, 0, 43, 2.839464059434249e-07
1, 0, 44, 4.122178438592528e-07
1, 0, 45, 4.047394384087966e-07
1, 0, 46, 1.000483536017782e-07
1, 0, 47, 8.476737889395736e-08
1, 0, 48, 1.267046769726221e-07
1, 0, 49, 1.038327042124365e-07
1, 0, 50, 1.246176566382928e-07
1, 0, 51, 4.084895692813006e-07
1, 0, 52, 8.009989471702283e-08
1, 0, 53, 3.388929599168478e-07
1, 0, 54, 2.924395516856748e-07
1, 0, 55, 5.443574195851397e-07
1, 0, 56, 1.097512267733691e-07
1, 0, 57, 1.128600572997129e-07
1, 0, 58, 1.246490768380681e-07
1, 0, 59, 3.873033733725606e-07
1, 0, 60, 4.04717013680056e-07
1, 0, 61, 4.048220318964013e-07
1, 0, 62, 4.082535838279e-07
1, 0, 63, 1.859691280969855e-07
1, 0, 64, 4.663664299187076e-07
1, 0, 65, 1.944114700336286e-07
1, 0, 66, 2.564448777775397e-07
1, 0, 67, 5.069503572485701e-07
1, 0, 68, 1.441341765939796e-07
1, 0, 69, 1.747443292288153e-07
1, 0, 70, 1.237353473015901e-07
1, 0, 71, 1.829545226428309e-07
1, 0, 72, 1.246992695769222e-07
1, 0, 73, 3.446873222401337e-07
1, 0, 74, 1.108457894360981e-07
1, 0, 75, 3.509239547838661e-07
1, 0, 76, 1.593484881823315e-07
1, 0, 77, 2.018727087715888e-07
1, 0, 78, 3.89828443303486e-07
1, 0, 79, 2.230646174439244e-07
1, 0, 80, 3.308821874270507e-07
1, 0, 81, 1.274355270197702e-07
1, 0, 82, 1.130546962713197e-07
1, 0, 83, 1.191627916341531e-07
1, 0, 84, 1.682486185927701e-07
1, 0, 85, 9.337173167978108e-08
1, 0, 86, 1.657690518186428e-07
1, 0, 87, 1.899861530318958e-07
1, 0, 88, 5.545891212932474e-07
1, 0, 89, 1.775454734342929e-07
1, 0, 90, 3.476864378626487e-07
1, 0, 91, 1.664544271307022e-07
1, 0, 92, 4.882878101852839e-07
1, 0, 93, 2.102453322549991e-07
1, 0, 94, 1.374075395688124e-07
1, 0, 95, 1.692886257842474e-07
1, 0, 96, 4.112473277473327e-07
1, 0, 97, 3.838544273548905e-07
1, 0, 98, 1.653658898703725e-07
1, 0, 99, 3.194311943843786e-07
1, 0, 100, 1.886308780285617e-07
1, 0, 101, 3.088243261117896e-07
1, 0, 102, 6.795231684009195e-07
1, 0, 103, 2.849570819307701e-07
1, 0, 104, 4.198500960228557e-07
1, 0, 105, 1.848681279170705e-07
1, 0, 106, 4.394813117869489e-07
1, 0, 107, 1.499061852427985e-07
1, 0, 108, 3.655416662695643e-07
1, 0, 109, 2.18850146893601e-07
1, 0, 110, 3.49423572743035e-07
1, 0, 111, 3.675959021620656e-07
1, 0, 112, 2.308883750856694e-07
1, 0, 113, 3.560241452760238e-07
1, 0, 114, 2.773027176772302e-07
1, 0, 115, 4.79606796943699e-07
1, 0, 116, 2.115806694291678e-07
1, 0, 117, 1.957678961161946e-07
1, 0, 118, 1.585146378602076e-07
1, 0, 119, 1.803185085691439e-07
1, 0, 120, 4.05205014430976e-07
1, 0, 121, 5.038083372710389e-07
1, 0, 122, 1.79619931373054e-07
1, 0, 123, 1.80612005351577e-07
1, 0, 124, 6.554445803885756e-07
1, 0, 125, 2.552634441599366e-07
1, 0, 126, 2.185030751888917e-07
1, 0, 127, 2.554232025886449e-07
1, 0, 128, 1.870308778961771e-07
1, 0, 129, 1.903706277062156e-07
1, 0, 130, 4.837570486415643e-07
1, 0, 131, 4.182183488410374e-07
1, 0, 132, 2.241194323460149e-07
1, 0, 133, 4.434019160726166e-07
1, 0, 134, 5.820983233206789e-07
1, 0, 135, 5.461155865305045e-07
1, 0, 136, 3.948836990730342e-07
1, 0, 137, 4.657429713006422e-07
1, 0, 138, 4.883908104602597e-07
1, 0, 139, 6.898742412886349e-07
1, 0, 140, 2.941166314940347e-07
1, 0, 141, 5.710101049771765e-07
1, 0, 142, 2.480622072198457e-07
1, 0, 143, 1.532036435492046e-07
1, 0, 144, 2.302661101794001e-07
1, 0, 145, 2.36088766314424e-07
1, 0, 146, 2.330848616338699e-07
1, 0, 147, 3.634401934959897e-07
1, 0, 148, 3.067721081606578e-07
1, 0, 149, 1.979974655341721e-07
1, 0, 150, 2.105066982949211e-07
1, 0, 151, 4.877562105320976e-07
1, 0, 152, 2.180582043820323e-07
1, 0, 153, 2.306354502934482e-07
1, 0, 154, 3.197247906427947e-07
1, 0, 155, 9.875938076220336e-07
1, 0, 156, 2.317695191322855e-07
1, 0, 157, 4.272646094705124e-07
1, 0, 158, 4.946626290802669e-07
1, 0, 159, 7.057502671159455e-07
1, 0, 160, 4.251684799783106e-07
1, 0, 161, 3.326697424199665e-07
1, 0, 162, 3.048693031360017e-07
1, 0, 163, 2.411545949598803e-07
1, 0, 164, 2.523491389183619e-07
1, 0, 165, 3.605127858463675e-07
1, 0, 166, 3.157225876293523e-07
1, 0, 167, 4.710970245014323e-07
1, 0, 168, 3.939664168228774e-07
1, 0, 169, 2.647735186656064e-07
1, 0, 170, 1.879027422546642e-07
1, 0, 171, 3.864641087147902e-07
1, 0, 172, 4.080778808202012e-07
1, 0, 173, 2.278656126009082e-07
1, 0, 174, 2.473893800924998e-07
1, 0, 175, 4.740862493690656e-07
1, 0, 176, 2.224591924004926e-07
1, 0, 177, 2.855319962691283e-07
1, 0, 178, 6.158704195513565e-07
1, 0, 179, 2.742831384239253e-07
1, 0, 180, 3.650581845704437e-07
1, 0, 181, 4.431690570072533e-07
1, 0, 182, 2.603206041840167e-07
1, 0, 183, 1.877756830026556e-07
1, 0, 184, 2.025633989433118e-07
1, 0, 185, 1.863081706687808e-07
1, 0, 186, 4.163062214956881e-07
1, 0, 187, 6.247083206289972e-07
1, 0, 188, 2.693502096917655e-07
1, 0, 189, 2.016019067241359e-07
1, 0, 190, 1.687985218268295e-07
1, 0, 191, 2.7718846240532e-07
1, 0, 192, 4.339678127962543e-07
1, 0, 193, 2.023949718932272e-07
1, 0, 194, 1.9703728071363e-07
1, 0, 195, 2.100360205758989e-07
1, 0, 196, 4.178027381840366e-07
1, 0, 197, 2.404706265224377e-07
1, 0, 198, 1.780828000619294e-07
1, 0, 199, 1.973788954501288e-07
1, 0, 200, 2.32895644103337e-07
1, 0, 201, 4.392446157908125e-07
1, 0, 202, 3.016061782545876e-07
1, 0, 203, 2.650930923664419e-07
1, 0, 204, 2.003770305236685e-07
1, 0, 205, 4.882930966232379e-07
1, 0, 206, 4.143851413118682e-07
1, 0, 207, 3.608679435274098e-07
1, 0, 208, 5.502583917404991e-07
1, 0, 209, 1.930596056354261e-07
1, 0, 210, 5.406101308835787e-07
1, 0, 211, 1.809628145110764e-07
1, 0, 212, 2.741555817920016e-07
1, 0, 213, 1.519912160574677e-07
1, 0, 214, 4.702306739545747e-07
1, 0, 215, 3.58801855782076e-07
1, 0, 216, 3.707500013661047e-07
1, 0, 217, 1.58138433903332e-07
1, 0, 218, 1.790211285879195e-07
1, 0, 219, 3.141433069231425e-07
1, 0, 220, 2.680979207525525e-07
1, 0, 221, 4.098601777968724e-07
1, 0, 222, 2.721530165672448e-07
1, 0, 223, 4.400947091198759e-07
1, 0, 224, 1.450089399668286e-07
1, 0, 225, 3.12021569470744e-07
1, 0, 226, 3.293701809070626e-07
1, 0, 227, 1.955045547674672e-07
1, 0, 228, 3.151888563479588e-07
1, 0, 229, 2.338914981692142e-07
1, 0, 230, 3.355157218720706e-07
1, 0, 231, 1.100303563816851e-07
1, 0, 232, 3.162790846999997e-07
1, 0, 233, 3.448136851602612e-07
1, 0, 234, 2.644518701799825e-07
1, 0, 235, 1.215871350268571e-07
1, 0, 236, 8.611108626155328e-08
1, 0, 237, 1.197501262595324e-07
1, 0, 238, 2.522613442579313e-07
1, 0, 239, 9.421994917602206e-08
1, 0, 240, 1.219781893269101e-07
1, 0, 241, 1.109368810148226e-07
1, 0, 242, 3.596005626604892e-07
1, 0, 243, 9.748278984034187e-08
1, 0, 244, 6.527783966703282e-07
1, 0, 245, 1.229838488825408e-07
1, 0, 246, 8.633681147784955e-08
1, 0, 247, 1.716947508612066e-07
1, 0, 248, 1.139092447033363e-07
1, 0, 249, 2.740351021657261e-07
1, 0, 250, 2.672258858638088e-07
1, 0, 251, 5.585555982179358e-07
1, 0, 252, 9.171414205866313e-08
1, 0, 253, 1.029180438649746e-07
1, 0, 254, 1.135994978085364e-07
1, 0, 255, 1.164208356385643e-07
1, 0, 256, 1.118384460596644e-07
1, 0, 257, 3.504532628539891e-07
1, 0, 258, 2.210480545272731e-07
1, 0, 259, 2.465792476868955e-07
1, 0, 260, 1.356128933593936e-07
1, 0, 261, 2.570548076619161e-07
1, 0, 262, 2.565166994372703e-07
1, 0, 263, 2.327655295175646e-07
1, 0, 264, 2.707037936033885e-07
1, 0, 265, 1.47686449736284e-07
1, 0, 266, 1.759493244435362e-07
1, 0, 267, 4.977368561753792e-08
1, 0, 268, 7.555755843213774e-08
1, 0, 269, 8.009384799834152e-08
1, 0, 270, 6.458419932187098e-08
1, 0, 271, 2.325776335965202e-07
1, 0, 272, 1.419544020109242e-07
1, 0, 273, 5.623968846180105e-08
1, 0, 274, 8.158845332673081e-08
1, 0, 275, 1.046921909164666e-07
1, 0, 276, 6.900088322936426e-08
1, 0, 277, 9.973973646992818e-08
1, 0, 278, 9.348309504275676e-08
1, 0, 279, 3.599377293994621e-07
1, 0, 280, 8.38713631878818e-08
1, 0, 281, 5.809926051369985e-08
1, 0, 282, 5.888032461598414e-08
1, 0, 283, 6.030757759845073e-08
1, 0, 284, 7.500665333282086e-08
1, 0, 285, 8.11926881283398e-08
1, 0, 286, 6.319810808008697e-08
1, 0, 287, 2.547602662161808e-07
1, 0, 288, 8.151688746238506e-08
1, 0, 289, 7.130304169322699e-08
1, 0, 290, 1.490937364678757e-07
1, 0, 291, 2.046168674496585e-07
1, 0, 292, 6.344645697708984e-08
1, 0, 293, 4.770157957523224e-08
1, 0, 294, 3.795542724560619e-08
1, 0, 295, 3.751358406134386e-07
1, 0, 296, 7.387880884834885e-08
1, 0, 297, 3.530981729227278e-08
1, 0, 298, 8.192206024659754e-08
1, 0, 299, 7.928556300385026e-08
2, 0, 0, 1.425406992439093e-07
2, 0, 1, 4.434765799032903e-08
2, 0, 2, 6.780621930602138e-08
2, 0, 3, 2.514418611099245e-07
2, 0, 4, 5.228858768191458e-08
2, 0, 5, 6.039089583964596e-08
2, 0, 6, 7.003405499972359e-08
2, 0, 7, 5.219175491788519e-08
2, 0, 8, 4.583504065180932e-08
2, 0, 9, 2.57653340440811e-07
2, 0, 10, 1.145638250932279e-07
2, 0, 11, 6.3537662242652e-08
2, 0, 12, 6.261822704800579e-08
2, 0, 13, 8.537671192243579e-08
2, 0, 14, 2.236507015140887e-07
2, 0, 15, 6.090959203675084e-08
2, 0, 16, 5.940454883557322e-08
2, 0, 17, 8.501503145907918e-08
2, 0, 18, 7.045424155194269e-08
2, 0, 19, 1.007690855203691e-07
2, 0, 20, 5.234642586060545e-08
2, 0, 21, 7.81219142709233e-08
2, 0, 22, 7.478465846588733e-08
2, 0, 23, 5.569780014980097e-08
2, 0, 24, 1.0081170387366e-07
2, 0, 25, 9.232086028987396e-08
2, 0, 26, 1.538431035896792e-07
2, 0, 27, 6.076129466237035e-08
2, 0, 28, 6.103863370299223e-08
2, 0, 29, 5.17350180473386e-08
2, 0, 30, 9.60697263963084e-08
2, 0, 31, 1.864093377434983e-07
2, 0, 32, 2.932130485078233e-07
2, 0, 33, 2.723870125009853e-07
2, 0, 34, 9.08744297589692e-08
2, 0, 35, 1.602492574193093e-07
2, 0, 36, 8.091189585002212e-08
2, 0, 37, 2.001502110715592e-07
2, 0, 38, 9.050797444842829e-08
2, 0, 39, 4.182651309747598e-07
2, 0, 40, 2.653752346759575e-07
2, 0, 41, 1.325072673807881e-07
2, 0, 42, 5.897425481293794e-08
2, 0, 43, 5.716078632644894e-08
2, 0, 44, 8.669645978898188e-08
2, 0, 45, 8.485478275588321e-08
2, 0, 46, 2.195135664351255e-07
2, 0, 47, 1.288830731027701e-07
2, 0, 48, 5.059063141743536e-07
2, 0, 49, 5.78934134409792e-07
2, 0, 50, 1.641830067455885e-07
2, 0, 51, 3.11272003727936e-07
2, 0, 52, 1.830894120757875e-07
2, 0, 53, 2.040139861492207e-07
2, 0, 54, 1.2046852759795e-07
2, 0, 55, 1.081746532349825e-07
2, 0, 56, 1.059537524383813e-07
2, 0, 57, 1.162203773219517e-07
2, 0, 58, 8.420654040719455e-08
2, 0, 59, 1.031897411962746e-07
2, 0, 60, 1.699887093309371e-07
2, 0, 61, 1.728701874981198e-07
2, 0, 62, 1.121769912515447e-07
2, 0, 63, 1.438688315147374e-07
2, 0, 64, 3.660127845250827e-07
2, 0, 65, 1.144188246371414e-07
2, 0, 66, 1.588148563769209e-07
2, 0, 67, 2.847448570264532e-07
2, 0, 68, 2.312172426854886e-07
2, 0, 69, 1.105456206573763e-07
2, 0, 70, 4.420986670083948e-07
2, 0, 71, 1.173528474396335e-07
2, 0, 72, 1.565294098782033e-07
2, 0, 73, 1.27256754467453e-07
2, 0, 74, 1.114378989086617e-07
2, 0, 75, 1.44740667451515e-07
2, 0, 76, 1.106155735897119e-07
2, 0, 77, 3.628091747032158e-07
2, 0, 78, 3.311278646833671e-07
2, 0, 79, 2.062772637145827e-07
2, 0, 80, 1.675131215961301e-07
2, 0, 81, 1.361215709039243e-07
2, 0, 82, 2.666715488430782e-07
2, 0, 83, 1.210266731277443e-07
2, 0, 84, 1.861170062511519e-07
2, 0, 85, 2.41953927115901e-07
2, 0, 86, 1.800432727350199e-07
2, 0, 87, 2.532636358409945e-07
2, 0, 88, 4.203969581340061e-07
2, 0, 89, 3.418043377223512e-07
2, 0, 90, 2.031591748163919e-07
2, 0, 91, 1.567501044519304e-07
2, 0, 92, 3.089919005105912e-07
2, 0, 93, 2.806087024964654e-07
2, 0, 94, 1.388117709666403e-07
2, 0, 95, 3.532412620188552e-07
2, 0, 96, 4.781384177476866e-07
2, 0, 97, 1.832926841416338e-07
2, 0, 98, 2.597791706193675e-07
2, 0, 99, 2.50120137934573e-07
2, 0, 100, 4.520926495388267e-07
2, 0, 101, 3.633567189353926e-07
2, 0, 102, 4.592195637087571e-07
2, 0, 103, 3.292591941317369e-07
2, 0, 104, 3.847365803721914e-07
2, 0, 105, 2.450499323458644e-07
2, 0, 106, 6.708365276608674e-07
2, 0, 107, 3.489828372948978e-07
2, 0, 108, 3.473169840617629e-07
2, 0, 109, 3.846749052627274e-07
2, 0, 110, 2.020631200139178e-07
2, 0, 111, 1.395859783315245e-07
2, 0, 112, 1.7352084569211e-07
2, 0, 113, 3.977527285314864e-07
2, 0, 114, 2.14187181768466e-07
2, 0, 115, 2.492292310307676e-07
2, 0, 116, 1.691750526333635e-07
2, 0, 117, 2.380666899171047e-07
2, 0, 118, 8.226554655266227e-07
2, 0, 119, 3.500478840123833e-07
2, 0, 120, 4.213723912016576e-07
2, 0, 121, 5.753234404437535e-07
2, 0, 122, 2.870132220778032e-07
2, 0, 123, 2.033298471815215e-07
2, 0, 124, 3.581487248993653e-07
2, 0, 125, 1.991856066752007e-07
2, 0, 126, 5.750164291384863e-07
2, 0, 127, 4.72390098593678e-07
2, 0, 128, 2.285655682499055e-07
2, 0, 129, 3.24248929928217e-07
2, 0, 130, 5.716221380680508e-07
2, 0, 131, 2.659850508734962e-07
2, 0, 132, 5.295420919537719e-07
2, 0, 133, 3.017619008005568e-07
2, 0, 134, 4.727790212655236e-07
2, 0, 135, 5.582977564699831e-07
2, 0, 136, 3.671448496334051e-07
2, 0, 137, 2.437462569560012e-07
2, 0, 138, 6.989978942328889e-07
2, 0, 139, 4.313504859965178e-07
2, 0, 140, 4.406295204262278e-07
2, 0, 141, 3.639628687324148e-07
2, 0, 142, 2.221216988118613e-07
2, 0, 143, 2.011573911886444e-07
2, 0, 144, 2.539753438668413e-07
2, 0, 145, 4.022175801310368e-07
2, 0, 146, 2.133066345777479e-07
2, 0, 147, 4.812748102267506e-07
2, 0, 148, 7.80448317527771e-07
2, 0, 149, 7.942809361338732e-07
2, 0, 150, 2.176506654905097e-07
2, 0, 151, 2.523906914575491e-07
2, 0, 152, 6.080962862142769e-07
2, 0, 153, 1.745479778492154e-07
2, 0, 154, 2.672765333500138e-07
2, 0, 155, 5.491054935191642e-07
2, 0, 156, 4.174587786565098e-07
2, 0, 157, 2.304803246033771e-07
2, 0, 158, 3.616812023210514e-07
2, 0, 159, 4.233435504374938e-07
2, 0, 160, 4.736695018436876e-07
2, 0, 161, 4.002484672582796e-07
2, 0, 162, 4.033209961562534e-07
2, 0, 163, 2.36900504546611e-07
2, 0, 164, 2.627820379075274e-07
2, 0, 165, 2.911581304942956e-07
2, 0, 166, 1.974093635226382e-07
2, 0, 167, 1.616949987237604e-07
2, 0, 168, 8.805990887594817e-07
2, 0, 169, 2.345745997445192e-07
2, 0, 170, 3.065723035433621e-07
2, 0, 171, 4.17122407725401e-07
2, 0, 172, 4.961841000294953e-07
2, 0, 173, 2.991816927533364e-07
2, 0, 174, 5.422425601864234e-07
2, 0, 175, 2.696198748708412e-07
2, 0, 176, 5.21992717494868e-07
2, 0, 177, 3.762886251479358e-07
2, 0, 178, 3.346914922985889e-07
2, 0, 179, 2.303908246403807e-07
2, 0, 180, 1.855280515883351e-07
2, 0, 181, 2.605748932182905e-07
2, 0, 182, 2.310002571448422e-07
2, 0, 183, 1.970315111066157e-07
2, 0, 184, 2.586842242635612e-07
2, 0, 185, 1.874483928077098e-07
2, 0, 186, 2.474412497122103e-07
2, 0, 187, 4.20082955088219e-07
2, 0, 188, 1.791695751762745e-07
2, 0, 189, 1.909335622940489e-07
2, 0, 190, 1.646686484946258e-07
2, 0, 191, 2.014431004226935e-07
2, 0, 192, 3.24077376490095e-07
2, 0, 193, 4.484988096464804e-07
2, 0, 194, 2.768464923974534e-07
2, 0, 195, 2.151106315295692e-07
2, 0, 196, 3.259619063555874e-07
2, 0, 197, 2.043231290826952e-07
2, 0, 198, 2.375570602453081e-07
2, 0, 199, 4.82873019791441e-07
2, 0, 200, 4.787979150933097e-07
2, 0, 201, 1.653666430456724e-07
2, 0, 202, 4.621799689630279e-07
2, 0, 203, 2.343344362998323e-07
2, 0, 204, 1.922269348142436e-07
2, 0, 205, 5.173528165869357e-07
2, 0, 206, 1.772814925971034e-07
2, 0, 207, 2.223799526746006e-07
2, 0, 208, 3.202525249434984e-07
2, 0, 209, 3.163839892295073e-07
2, 0, 210, 1.947036594174278e-07
2, 0, 211, 4.983554049431405e-07
2, 0, 212, 1.446026658413757e-07
2, 0, 213, 5.201785029385064e-07
2, 0, 214, 2.614039544823754e-07
2, 0, 215, 1.785249423846835e-07
2, 0, 216, 1.552880917188304e-07
2, 0, 217, 2.319251990456905e-07
2, 0, 218, 1.499330721799197e-07
2, 0, 219, 2.261429159489126e-07
2, 0, 220, 1.097708093311667e-07
2, 0, 221, 1.148782828863659e-07
2, 0, 222, 1.455038898257044e-07
2, 0, 223, 2.325128036773094e-07
2, 0, 224, 1.429588678547589e-07
2, 0, 225, 3.747491916783474e-07
2, 0, 226, 2.032539327956329e-07
2, 0, 227, 3.636073984125687e-07
2, 0, 228, 1.890924750114209e-07
2, 0, 229, 4.034066023450578e-07
2, 0, 230, 4.923245455756842e-07
2, 0, 231, 1.096081874152333e-07
2, 0, 232, 1.548321222344384e-07
2, 0, 233, 1.79615938122879e-07
2, 0, 234, 2.569746868630318e-07
2, 0, 235, 1.410327286066604e-07
2, 0, 236, 4.933708055432362e-07
2, 0, 237, 2.134937773234924e-07
2, 0, 238, 4.594094491494616e-07
2, 0, 239, 2.14808110854392e-07
2, 0, 240, 1.174260262359894e-07
2, 0, 241, 9.031790426661246e-08
2, 0, 242, 2.7511919142853e-07
2, 0, 243, 9.968653813530182e-08
2, 0, 244, 6.319357339634735e-07
2, 0, 245, 2.265817329316633e-07
2, 0, 246, 1.323450362633594e-07
2, 0, 247, 2.09406451290306e-07
2, 0, 248, 1.240021134663039e-07
2, 0, 249, 1.5625263927177e-07
2, 0, 250, 6.921653294966745e-08
2, 0, 251, 9.727781957735715e-08
2, 0, 252, 1.744233486533631e-07
2, 0, 253, 2.692567591111583e-07
2, 0, 254, 2.63394355215496e-07
2, 0, 255, 2.888182848437282e-07
2, 0, 256, 7.919398115063814e-08
2, 0, 257, 7.41396434023045e-07
2, 0, 258, 1.562201958904552e-07
2, 0, 259, 3.200612184173224e-07
2, 0, 260, 9.917746268683914e-08
2, 0, 261, 4.633020864730497e-07
2, 0, 262, 2.924140005688969e-07
2, 0, 263, 1.008161518711859e-07
2, 0, 264, 1.503561577465007e-07
2, 0, 265, 1.026745621857117e-07
2, 0, 266, 1.32508318984037e-07
2, 0, 267, 6.840665633944809e-08
2, 0, 268, 1.416461117287326e-07
2, 0, 269, 1.004777914204169e-07
2, 0, 270, 6.384929207570167e-08
2, 0, 271, 4.862702596142299e-08
2, 0, 272, 2.382341648399233e-07
2, 0, 273, 1.129957070133969e-07
2, 0, 274, 7.440878135867024e-08
2, 0, 275, 6.606485385418637e-07
2, 0, 276, 1.515425793741088e-07
2, 0, 277, 7.784304756341953e-08
2, 0, 278, 6.400485830226899e-08
2, 0, 279, 7.563354387229992e-08
2, 0, 280, 5.427190075124599e-08
2, 0, 281, 2.023781320303897e-07
2, 0, 282, 2.61150091773743e-07
2, 0, 283, 2.906457154949749e-07
2, 0, 284, 6.718295253449469e-08
2, 0, 285, 7.20113035868053e-08
2, 0, 286, 9.111342791356947e-08
2, 0, 287, 8.119788930116556e-08
2, 0, 288, 3.9061450962663e-08
2, 0, 289, 5.214535292452638e-08
2, 0, 290, 8.395994655074901e-08
2, 0, 291, 6.650637374150392e-08
2, 0, 292, 9.346712914748423e-08
2, 0, 293, 9.622007723919523e-08
2, 0, 294, 5.595692442739164e-08
2, 0, 295, 2.105716276901148e-07
2, 0, 296, 3.735947018412844e-07
2, 0, 297, 8.911570859027051e-08
2, 0, 298, 7.54810116632143e-08
2, 0, 299, 2.855379754862497e-08
3, 0, 0, 5.581402362508925e-08
3, 0, 1, 8.789813676912672e-08
3, 0, 2, 3.62717003099533e-08
3, 0, 3, 8.823589325857029e-08
3, 0, 4, 7.378721988970938e-08
3, 0, 5, 6.75052433507517e-07
3, 0, 6, 3.468240947768209e-07
3, 0, 7, 1.920823962109353e-07
3, 0, 8, 1.598951797632253e-07
3, 0, 9, 2.453417380365863e-07
3, 0, 10, 2.254317905681091e-07
3, 0, 11, 1.250776762162786e-07
3, 0, 12, 2.349653840383326e-07
3, 0, 13, 2.623513637445285e-07
