# TOPAS Version: 3.9
# Parameter File: data/topas/input/plan_1a/main_2GySOBP.txt
# Results for scorer: Scoring_protonD_XYBox
# Scored in component: ScoringXYBox
# X in 300 bins of 0.0666667 cm
# Y in 300 bins of 0.0666667 cm
# Z in 1 bin  of 2 cm
# DoseToWater ( Gy ) : Sum   
0, 0, 0, 4.338045656027134e-08
0, 1, 0, 3.647753743507565e-08
0, 2, 0, 4.788111240827675e-08
0, 3, 0, 2.399209506620537e-07
0, 4, 0, 9.167811754196009e-08
0, 5, 0, 2.323061153219896e-06
0, 6, 0, 3.444158025445176e-08
0, 7, 0, 9.891666508110575e-08
0, 8, 0, 9.522949540041736e-08
0, 9, 0, 7.146518754552744e-08
0, 10, 0, 4.173274135155225e-07
0, 11, 0, 2.226247630687794e-08
0, 12, 0, 1.533820181975898e-07
0, 13, 0, 8.35971434298699e-08
0, 14, 0, 1.013114356851474e-07
0, 15, 0, 9.959035907058933e-08
0, 16, 0, 1.106889584434612e-07
0, 17, 0, 2.047448361963689e-07
0, 18, 0, 1.407611449621982e-07
0, 19, 0, 1.655616586049291e-07
0, 20, 0, 9.008166301782694e-08
0, 21, 0, 1.538970622050329e-07
0, 22, 0, 1.72018118860251e-07
0, 23, 0, 8.596347811362648e-08
0, 24, 0, 2.406667221066527e-08
0, 25, 0, 1.408437242389482e-07
0, 26, 0, 1.200323822558858e-06
0, 27, 0, 2.703016477312303e-08
0, 28, 0, 2.652048003426444e-08
0, 29, 0, 7.078271835325722e-08
0, 30, 0, 6.92015262870882e-08
0, 31, 0, 1.094948629543069e-07
0, 32, 0, 2.296963259595941e-07
0, 33, 0, 1.175349453319541e-07
0, 34, 0, 2.503718121715792e-07
0, 35, 0, 6.23119973397479e-08
0, 36, 0, 1.060660963503324e-07
0, 37, 0, 1.37062912131114e-07
0, 38, 0, 1.430601855645364e-06
0, 39, 0, 1.952743104993715e-07
0, 40, 0, 1.463212129237945e-07
0, 41, 0, 2.190718646488676e-07
0, 42, 0, 2.089909457936301e-06
0, 43, 0, 1.137595972977579e-07
0, 44, 0, 1.64208032060742e-07
0, 45, 0, 4.0982686755342e-07
0, 46, 0, 8.950617313985276e-08
0, 47, 0, 1.655239714182244e-07
0, 48, 0, 2.826593004101596e-07
0, 49, 0, 1.003226657303458e-07
0, 50, 0, 3.571568640836631e-08
0, 51, 0, 3.949216775822606e-08
0, 52, 0, 6.362560611705703e-08
0, 53, 0, 1.081438583128147e-07
0, 54, 0, 7.564806736581886e-08
0, 55, 0, 1.034564860447063e-07
0, 56, 0, 1.381121990107204e-07
0, 57, 0, 1.135301488375262e-07
0, 58, 0, 1.461627476828653e-07
0, 59, 0, 1.075900684099906e-07
0, 60, 0, 1.131445301894018e-07
0, 61, 0, 2.996606269789481e-07
0, 62, 0, 4.095082317689958e-08
0, 63, 0, 3.535198629833758e-06
0, 64, 0, 8.95359804076179e-08
0, 65, 0, 6.947151121039497e-08
0, 66, 0, 8.468435197528379e-08
0, 67, 0, 9.096863351487627e-08
0, 68, 0, 1.149470847394696e-07
0, 69, 0, 6.178432272463397e-07
0, 70, 0, 1.520947279232132e-07
0, 71, 0, 2.154939267029476e-07
0, 72, 0, 2.84462345234715e-07
0, 73, 0, 1.614423723594882e-07
0, 74, 0, 1.122191832791941e-07
0, 75, 0, 5.041942472416849e-07
0, 76, 0, 7.785364175560971e-08
0, 77, 0, 2.946590029750951e-07
0, 78, 0, 1.654492791658413e-07
0, 79, 0, 1.637807940824132e-06
0, 80, 0, 5.440281825030979e-08
0, 81, 0, 1.126718842670016e-07
0, 82, 0, 5.110149814413489e-08
0, 83, 0, 7.359918896554518e-08
0, 84, 0, 3.442686136168049e-07
0, 85, 0, 5.273306413755563e-08
0, 86, 0, 2.110593584347953e-07
0, 87, 0, 3.62969188927309e-07
0, 88, 0, 4.040795786863782e-08
0, 89, 0, 2.060753132582249e-07
0, 90, 0, 1.879755728850796e-08
0, 91, 0, 1.825031716862213e-07
0, 92, 0, 1.096521700105768e-07
0, 93, 0, 3.49414591482855e-07
0, 94, 0, 3.321325721117319e-07
0, 95, 0, 2.612277967273258e-06
0, 96, 0, 1.771930442373559e-07
0, 97, 0, 2.842541562131373e-07
0, 98, 0, 2.963261920285731e-07
0, 99, 0, 1.520599539617251e-07
0, 100, 0, 1.258495956335537e-07
0, 101, 0, 1.145265784430194e-07
0, 102, 0, 3.46557982311424e-07
0, 103, 0, 1.638731390585235e-07
0, 104, 0, 5.979787829346606e-07
0, 105, 0, 1.727294289821657e-07
0, 106, 0, 4.127056740799162e-07
0, 107, 0, 4.302953300339141e-07
0, 108, 0, 2.309183457782638e-07
0, 109, 0, 2.890865289373323e-07
0, 110, 0, 1.094248091249028e-06
0, 111, 0, 2.617786549308221e-06
0, 112, 0, 1.399783968736301e-07
0, 113, 0, 1.052492066833111e-07
0, 114, 0, 1.852353932463302e-07
0, 115, 0, 2.480848024788429e-07
0, 116, 0, 2.179682212499756e-07
0, 117, 0, 6.857135304016992e-07
0, 118, 0, 3.748637880107708e-07
0, 119, 0, 2.719906433412689e-07
0, 120, 0, 1.604567074764418e-07
0, 121, 0, 1.461239520494928e-07
0, 122, 0, 3.509209591356921e-06
0, 123, 0, 1.735122339141526e-07
0, 124, 0, 9.030332392967466e-08
0, 125, 0, 2.334809323656373e-06
0, 126, 0, 1.501543351878354e-07
0, 127, 0, 3.250995064263407e-07
0, 128, 0, 2.2840467295282e-07
0, 129, 0, 1.402712257458916e-07
0, 130, 0, 2.193769290670389e-07
0, 131, 0, 3.576009532935132e-07
0, 132, 0, 1.825991091664037e-07
0, 133, 0, 5.520995500774006e-07
0, 134, 0, 3.400162711386656e-07
0, 135, 0, 7.51106938423618e-07
0, 136, 0, 4.317868160796934e-07
0, 137, 0, 4.215935405227356e-07
0, 138, 0, 7.473281016245892e-07
0, 139, 0, 3.012052900430717e-07
0, 140, 0, 1.834549863133361e-07
0, 141, 0, 2.098043125897675e-07
0, 142, 0, 2.258115472386635e-07
0, 143, 0, 1.743466214065847e-06
0, 144, 0, 2.607755789085786e-07
0, 145, 0, 2.95991384291483e-07
0, 146, 0, 2.393132376710128e-07
0, 147, 0, 3.722308008491382e-07
0, 148, 0, 4.75119719567374e-07
0, 149, 0, 3.189643393852748e-07
0, 150, 0, 1.76589423972473e-07
0, 151, 0, 4.402147339988005e-07
0, 152, 0, 3.510032229314675e-07
0, 153, 0, 3.529709147187532e-07
0, 154, 0, 5.019539912609616e-07
0, 155, 0, 3.418790868181532e-07
0, 156, 0, 1.732899619355521e-07
0, 157, 0, 2.056313519460673e-07
0, 158, 0, 2.715484868076601e-07
0, 159, 0, 1.314083419856615e-07
0, 160, 0, 2.683487139165663e-07
0, 161, 0, 3.090020186391484e-07
0, 162, 0, 3.15739271172788e-07
0, 163, 0, 4.60721395256769e-07
0, 164, 0, 3.659858407445427e-07
0, 165, 0, 3.155958268052927e-07
0, 166, 0, 2.669490015705378e-07
0, 167, 0, 3.887747084263538e-07
0, 168, 0, 2.926810225289955e-07
0, 169, 0, 3.565290569440549e-07
0, 170, 0, 2.620853649659693e-07
0, 171, 0, 3.921786174032604e-06
0, 172, 0, 2.63211632045568e-07
0, 173, 0, 2.956545301913138e-07
0, 174, 0, 3.269809099037957e-07
0, 175, 0, 5.175153887648776e-07
0, 176, 0, 2.391043381066993e-07
0, 177, 0, 3.446309051469143e-07
0, 178, 0, 1.378690370756885e-07
0, 179, 0, 1.333023931238131e-07
0, 180, 0, 1.316090418868043e-07
0, 181, 0, 1.705343350977273e-07
0, 182, 0, 2.190577106375713e-07
0, 183, 0, 3.02564899357094e-07
0, 184, 0, 3.087693869474606e-07
0, 185, 0, 4.948093987877655e-07
0, 186, 0, 2.780477927899483e-07
0, 187, 0, 4.771151225213544e-07
0, 188, 0, 2.992472332152829e-07
0, 189, 0, 2.10408401812856e-07
0, 190, 0, 1.833043654642097e-07
0, 191, 0, 2.155463363351373e-07
0, 192, 0, 1.942621281614265e-07
0, 193, 0, 1.959568862730521e-07
0, 194, 0, 3.505550694171689e-07
0, 195, 0, 2.363174331776463e-07
0, 196, 0, 1.876511959153504e-07
0, 197, 0, 6.107430294832739e-07
0, 198, 0, 2.544868209497508e-07
0, 199, 0, 2.3396969481837e-06
0, 200, 0, 3.438090914187342e-07
0, 201, 0, 2.572905657416413e-07
0, 202, 0, 1.65359125503528e-07
0, 203, 0, 2.918517054695258e-07
0, 204, 0, 3.118435358828719e-07
0, 205, 0, 1.597329855940188e-06
0, 206, 0, 3.160344874686416e-07
0, 207, 0, 6.990832730480179e-07
0, 208, 0, 2.899840865211445e-07
0, 209, 0, 2.218307599832769e-07
0, 210, 0, 3.930316836431302e-07
0, 211, 0, 1.659681601040575e-07
0, 212, 0, 1.561881362022177e-07
0, 213, 0, 2.319280838491977e-07
0, 214, 0, 1.744368631761972e-07
0, 215, 0, 3.269717865350685e-07
0, 216, 0, 1.662654369738448e-07
0, 217, 0, 1.72691741795461e-07
0, 218, 0, 2.333327557835219e-07
0, 219, 0, 2.12009979350114e-07
0, 220, 0, 3.253759928156796e-07
0, 221, 0, 2.1252313331388e-07
0, 222, 0, 3.019698397110915e-06
0, 223, 0, 1.92324961290069e-07
0, 224, 0, 2.314240816758684e-07
0, 225, 0, 1.159787430538017e-07
0, 226, 0, 1.084779270854597e-07
0, 227, 0, 1.623016174789882e-07
0, 228, 0, 1.031388450201121e-07
0, 229, 0, 7.183272998645407e-08
0, 230, 0, 1.190651559568323e-07
0, 231, 0, 1.243795537675396e-07
0, 232, 0, 1.437979904039821e-07
0, 233, 0, 1.261728499457604e-07
0, 234, 0, 1.352331082671299e-07
0, 235, 0, 1.487291996227214e-07
0, 236, 0, 1.173035855117632e-07
0, 237, 0, 1.450970330552082e-07
0, 238, 0, 3.197283717781829e-07
0, 239, 0, 1.343697277889078e-07
0, 240, 0, 1.361384391884712e-07
0, 241, 0, 2.403042174137227e-07
0, 242, 0, 2.994971737280139e-07
0, 243, 0, 1.861013885218199e-07
0, 244, 0, 9.490403130030245e-08
0, 245, 0, 2.128892191421983e-07
0, 246, 0, 1.362628267997934e-07
0, 247, 0, 7.709164862035323e-08
0, 248, 0, 3.204443999038631e-07
0, 249, 0, 1.095776127613135e-07
0, 250, 0, 1.163858627251102e-07
0, 251, 0, 9.851100912783295e-08
0, 252, 0, 1.669122156044978e-07
0, 253, 0, 2.463831663135352e-07
0, 254, 0, 1.771140318851394e-07
0, 255, 0, 1.254593087196554e-07
0, 256, 0, 1.261829254417535e-07
0, 257, 0, 1.423037616632428e-07
0, 258, 0, 1.46649469456861e-07
0, 259, 0, 2.295017367259788e-07
0, 260, 0, 1.032327858752069e-07
0, 261, 0, 5.856644236246211e-08
0, 262, 0, 6.132481189524697e-08
0, 263, 0, 7.007498936673073e-08
0, 264, 0, 9.067019846042967e-08
0, 265, 0, 1.232589283972629e-07
0, 266, 0, 1.687611899114927e-07
0, 267, 0, 9.497072284148089e-08
0, 268, 0, 8.22567329805679e-08
0, 269, 0, 1.553965631728715e-07
0, 270, 0, 1.693010887038326e-07
0, 271, 0, 5.552125870167401e-08
0, 272, 0, 1.488074730104927e-07
0, 273, 0, 7.896653642092133e-08
0, 274, 0, 8.852762789501867e-08
0, 275, 0, 1.570462586641952e-07
0, 276, 0, 2.919509256571473e-08
0, 277, 0, 7.077969854663024e-08
0, 278, 0, 5.085396992399183e-08
0, 279, 0, 4.395680264224211e-08
0, 280, 0, 6.820300058052453e-08
0, 281, 0, 2.794724025534379e-07
0, 282, 0, 1.552544688365742e-07
0, 283, 0, 9.215379037641469e-08
0, 284, 0, 2.876699589648979e-08
0, 285, 0, 7.679693680984201e-08
0, 286, 0, 5.003830239047602e-08
0, 287, 0, 4.460537539330289e-08
0, 288, 0, 2.308612678803001e-08
0, 289, 0, 9.377893661621783e-08
0, 290, 0, 9.135522560654863e-08
0, 291, 0, 9.918440468936751e-08
0, 292, 0, 1.717400124334745e-07
0, 293, 0, 6.390817475221411e-08
0, 294, 0, 7.42562349387299e-08
0, 295, 0, 4.721676916119577e-08
0, 296, 0, 7.714493222010788e-08
0, 297, 0, 1.19952034083326e-07
0, 298, 0, 7.596905504669849e-08
0, 299, 0, 3.591481174680666e-07
1, 0, 0, 5.916637846326012e-08
1, 1, 0, 4.603638714684166e-08
1, 2, 0, 1.226791379593806e-08
1, 3, 0, 1.543831558592501e-06
1, 4, 0, 9.143494850150091e-08
1, 5, 0, 9.419805024890593e-08
1, 6, 0, 1.591405975887028e-07
1, 7, 0, 2.632946234371047e-06
1, 8, 0, 8.120035488445865e-08
1, 9, 0, 1.193320429138112e-07
1, 10, 0, 1.889493184137336e-08
1, 11, 0, 7.900031562257936e-08
1, 12, 0, 1.11865539054179e-07
1, 13, 0, 3.428347326916992e-06
1, 14, 0, 2.942772958647311e-08
1, 15, 0, 1.466978627462368e-08
1, 16, 0, 6.716610378987298e-09
1, 17, 0, 1.860949616627749e-08
1, 18, 0, 1.114992187467578e-07
1, 19, 0, 4.203618431120049e-08
1, 20, 0, 1.072044426564389e-07
1, 21, 0, 4.774655280925799e-06
1, 22, 0, 3.336881775339862e-07
1, 23, 0, 5.401214053790682e-08
1, 24, 0, 5.354593213269254e-08
1, 25, 0, 2.164185453068512e-08
1, 26, 0, 1.225009782501729e-07
1, 27, 0, 1.135446225930536e-07
1, 28, 0, 4.398907904601401e-08
1, 29, 0, 2.748423533205369e-08
1, 30, 0, 2.113119705882127e-07
1, 31, 0, 1.357088041942234e-08
1, 32, 0, 1.701226210570894e-06
1, 33, 0, 1.439194221575235e-07
1, 34, 0, 2.673406527264888e-07
1, 35, 0, 1.139739609357093e-07
1, 36, 0, 1.853325102274539e-07
1, 37, 0, 2.200106337113539e-06
1, 38, 0, 2.187715075763208e-08
1, 39, 0, 3.106237329575379e-07
1, 40, 0, 1.166705132504831e-07
1, 41, 0, 1.847972868063152e-07
1, 42, 0, 1.198813635028273e-07
1, 43, 0, 1.419252981804675e-07
1, 44, 0, 1.223091885549366e-07
1, 45, 0, 1.651668100066672e-07
1, 46, 0, 1.632860460176744e-07
1, 47, 0, 1.419424933146729e-07
1, 48, 0, 1.604493462536993e-07
1, 49, 0, 5.162144844916838e-08
1, 50, 0, 1.120046064784219e-07
1, 51, 0, 1.599192103185487e-07
1, 52, 0, 1.178760953735036e-06
1, 53, 0, 9.14106834670747e-08
1, 54, 0, 3.001191544171888e-07
1, 55, 0, 1.024353792900001e-07
1, 56, 0, 2.538855312650412e-07
1, 57, 0, 1.524470718550219e-07
1, 58, 0, 1.098610695748903e-07
1, 59, 0, 4.710486933845459e-08
1, 60, 0, 1.145105841260374e-07
1, 61, 0, 9.627735408912486e-08
1, 62, 0, 1.051254585604511e-07
1, 63, 0, 3.857655528349824e-08
1, 64, 0, 3.614470855950458e-08
1, 65, 0, 5.350326759412383e-08
1, 66, 0, 5.983558537536737e-08
1, 67, 0, 1.995563678747203e-07
1, 68, 0, 8.754216196393827e-08
1, 69, 0, 1.415850050534573e-07
1, 70, 0, 1.214967397800137e-07
1, 71, 0, 1.179608091206319e-07
1, 72, 0, 7.064498390718654e-07
1, 73, 0, 1.414178427694424e-07
1, 74, 0, 1.010924535194135e-07
1, 75, 0, 1.354186792923429e-06
1, 76, 0, 1.589594660345028e-07
1, 77, 0, 9.514312182545837e-07
1, 78, 0, 4.826825517056932e-08
1, 79, 0, 2.03120450237293e-07
1, 80, 0, 1.694336333457613e-06
1, 81, 0, 2.567474268744263e-07
1, 82, 0, 1.572260401871972e-07
1, 83, 0, 1.42315528250947e-07
1, 84, 0, 3.934554570150794e-06
1, 85, 0, 2.654772401911032e-07
1, 86, 0, 1.786344512311189e-07
1, 87, 0, 2.556461708991264e-07
1, 88, 0, 1.41705271516912e-07
1, 89, 0, 2.676328563211428e-07
1, 90, 0, 7.567268056618559e-08
1, 91, 0, 2.342334937566193e-06
1, 92, 0, 2.591491750081332e-07
1, 93, 0, 2.700984111925209e-07
1, 94, 0, 2.43489040485656e-07
1, 95, 0, 3.606645861964353e-07
1, 96, 0, 1.898031456448734e-07
1, 97, 0, 2.37890333210089e-07
1, 98, 0, 2.352859098664339e-07
1, 99, 0, 1.964237696938653e-07
1, 100, 0, 8.916628502220192e-08
1, 101, 0, 3.346935045556165e-06
1, 102, 0, 1.928861195210629e-07
1, 103, 0, 2.107546777097014e-07
1, 104, 0, 2.937926524282375e-07
1, 105, 0, 4.309628366172547e-06
1, 106, 0, 2.12869622373546e-07
1, 107, 0, 4.689625825449184e-07
1, 108, 0, 1.40901065037724e-07
1, 109, 0, 1.982607074069165e-07
1, 110, 0, 4.755000304612622e-07
1, 111, 0, 4.806615379493451e-06
1, 112, 0, 5.984556992189027e-07
1, 113, 0, 3.106114263573545e-07
1, 114, 0, 9.675469669900849e-08
1, 115, 0, 2.344346796689933e-07
1, 116, 0, 4.03751386102158e-07
1, 117, 0, 5.010660402149369e-07
1, 118, 0, 3.372029766524065e-07
1, 119, 0, 3.232696883515018e-07
1, 120, 0, 2.615802259242628e-07
1, 121, 0, 3.027818991085951e-07
1, 122, 0, 2.485767822690832e-07
1, 123, 0, 2.248330588372482e-07
1, 124, 0, 2.620191139612871e-07
1, 125, 0, 1.545662797752811e-07
1, 126, 0, 1.985964388495631e-07
1, 127, 0, 3.388070979326585e-07
1, 128, 0, 4.173136005647393e-07
1, 129, 0, 3.060426934098359e-07
1, 130, 0, 1.532549021021623e-07
1, 131, 0, 3.153353702600725e-07
1, 132, 0, 1.199829057441093e-06
1, 133, 0, 2.62849471255322e-06
1, 134, 0, 5.2305244935269e-07
1, 135, 0, 3.466441000909981e-07
1, 136, 0, 2.692704299533943e-07
1, 137, 0, 2.87911944951702e-07
1, 138, 0, 6.097457685427798e-07
1, 139, 0, 2.917221308962326e-07
1, 140, 0, 2.756144397153548e-07
1, 141, 0, 3.247827748964482e-07
1, 142, 0, 4.526781651748024e-07
1, 143, 0, 4.625720180229109e-07
1, 144, 0, 3.669449029075622e-07
1, 145, 0, 4.448599497663963e-07
1, 146, 0, 4.829142312701151e-07
1, 147, 0, 1.759513907018118e-06
1, 148, 0, 2.727140554270591e-06
1, 149, 0, 1.009455672829063e-06
1, 150, 0, 2.126148501702119e-07
1, 151, 0, 2.555331093390123e-07
1, 152, 0, 3.357093589784199e-07
1, 153, 0, 3.118159099813056e-07
1, 154, 0, 2.760846768978809e-07
1, 155, 0, 5.055425731370633e-07
1, 156, 0, 2.449225178224879e-07
1, 157, 0, 2.325914891798675e-07
1, 158, 0, 1.68860623261935e-07
1, 159, 0, 4.949343406224216e-07
1, 160, 0, 4.268253519512655e-07
1, 161, 0, 3.554864917987288e-07
1, 162, 0, 3.14605586027028e-07
1, 163, 0, 2.115373831657053e-07
1, 164, 0, 4.118927847684972e-07
1, 165, 0, 2.79325746532777e-07
1, 166, 0, 1.990680175367743e-06
1, 167, 0, 3.978266533977148e-07
1, 168, 0, 3.839716669062909e-07
1, 169, 0, 4.435124481005914e-07
1, 170, 0, 2.680215800410224e-07
1, 171, 0, 2.423895466563408e-07
1, 172, 0, 1.761074372552685e-06
1, 173, 0, 4.808745188711328e-07
1, 174, 0, 1.000788074634329e-06
1, 175, 0, 3.346271455484384e-07
1, 176, 0, 3.104992458702327e-07
1, 177, 0, 3.502468359783961e-07
1, 178, 0, 2.480134071447537e-07
1, 179, 0, 1.719694324719967e-07
1, 180, 0, 5.9598900037372e-08
1, 181, 0, 1.426254101488666e-07
1, 182, 0, 1.96024103615855e-07
1, 183, 0, 1.79752657913923e-06
1, 184, 0, 9.671820180301438e-07
1, 185, 0, 3.367836427514703e-07
1, 186, 0, 4.31954390478495e-07
1, 187, 0, 3.840357862827659e-07
1, 188, 0, 3.019854943886457e-07
1, 189, 0, 3.731273352514108e-07
1, 190, 0, 2.923693500633817e-07
1, 191, 0, 2.152428351109847e-07
1, 192, 0, 2.802632081966294e-07
1, 193, 0, 1.840334533653731e-07
1, 194, 0, 1.789198904589284e-07
1, 195, 0, 6.838673130005191e-07
1, 196, 0, 2.896776322813821e-06
1, 197, 0, 2.75457750831265e-07
1, 198, 0, 3.184882189088967e-07
1, 199, 0, 1.813791072891036e-07
1, 200, 0, 2.866861166239687e-07
1, 201, 0, 2.367781775092226e-07
1, 202, 0, 2.713018147915136e-07
1, 203, 0, 1.672821241527345e-07
1, 204, 0, 2.144043236285142e-07
1, 205, 0, 3.227115485060494e-06
1, 206, 0, 2.675521670880698e-07
1, 207, 0, 1.241264612872328e-06
1, 208, 0, 2.39489367004353e-07
1, 209, 0, 2.209499001537552e-07
1, 210, 0, 3.368527075053862e-07
1, 211, 0, 1.480097751027643e-07
1, 212, 0, 2.238004981336417e-07
1, 213, 0, 2.100800600146613e-07
1, 214, 0, 4.248307448051492e-07
1, 215, 0, 1.75000025137706e-07
1, 216, 0, 1.685315567101497e-07
1, 217, 0, 4.098329497992381e-07
1, 218, 0, 2.612622438391554e-07
1, 219, 0, 3.076229404541664e-07
1, 220, 0, 2.065515189997313e-07
1, 221, 0, 3.45702630966116e-07
1, 222, 0, 3.031392452612636e-07
1, 223, 0, 3.173401523781649e-07
1, 224, 0, 2.656803417266929e-07
1, 225, 0, 3.276227289461531e-07
1, 226, 0, 1.295424425507008e-07
1, 227, 0, 1.5329717939494e-07
1, 228, 0, 2.630563074035308e-07
1, 229, 0, 2.333282367317224e-07
1, 230, 0, 4.300892669562018e-06
1, 231, 0, 1.454038454085094e-07
1, 232, 0, 1.394733146753424e-07
1, 233, 0, 6.676789325865684e-07
1, 234, 0, 1.487850767034615e-07
1, 235, 0, 1.62803203807016e-07
1, 236, 0, 1.05016709994743e-07
1, 237, 0, 1.881337112763504e-07
1, 238, 0, 2.913631362844171e-07
1, 239, 0, 7.028199888736708e-08
1, 240, 0, 8.073087656157441e-07
1, 241, 0, 1.327631764524995e-07
1, 242, 0, 4.428612783158314e-07
1, 243, 0, 1.37244342113263e-07
1, 244, 0, 1.8324472250697e-07
1, 245, 0, 3.281706426605524e-07
1, 246, 0, 2.09831185316034e-07
1, 247, 0, 1.030758909337237e-07
1, 248, 0, 3.126261560737476e-07
1, 249, 0, 1.296902354397389e-07
1, 250, 0, 9.402200618069401e-08
1, 251, 0, 1.018048578771413e-07
1, 252, 0, 1.118171155667369e-07
1, 253, 0, 1.416055113168113e-07
1, 254, 0, 1.492146424197927e-07
1, 255, 0, 1.323471678915666e-07
1, 256, 0, 7.188315720441096e-08
1, 257, 0, 1.816704155999105e-07
1, 258, 0, 5.025881222309181e-08
1, 259, 0, 1.512783427415343e-07
1, 260, 0, 1.617627987116066e-07
1, 261, 0, 1.684198593920883e-07
1, 262, 0, 2.840575348272978e-07
1, 263, 0, 1.045231883267661e-07
1, 264, 0, 1.729146816842331e-07
1, 265, 0, 8.729646339133978e-08
1, 266, 0, 6.32476400141968e-08
1, 267, 0, 1.76095682036248e-07
1, 268, 0, 1.987498450262137e-07
1, 269, 0, 1.851547608566761e-07
1, 270, 0, 6.841019484227218e-08
1, 271, 0, 9.706335646342268e-08
1, 272, 0, 1.214343683386687e-07
1, 273, 0, 6.093436866194679e-08
1, 274, 0, 1.617561196098904e-07
1, 275, 0, 1.091482602078031e-07
1, 276, 0, 4.823114352348057e-08
1, 277, 0, 1.394824948874884e-07
1, 278, 0, 1.819842054828769e-08
1, 279, 0, 2.878351601509621e-08
1, 280, 0, 9.544297085994913e-08
1, 281, 0, 2.29267058671212e-08
1, 282, 0, 1.997626952743303e-08
1, 283, 0, 1.183263975690352e-07
1, 284, 0, 8.341966406533174e-08
1, 285, 0, 4.382261309388014e-08
1, 286, 0, 3.924168368030223e-08
1, 287, 0, 8.768168413553212e-08
1, 288, 0, 7.375108168616862e-08
1, 289, 0, 5.549300752250019e-08
1, 290, 0, 6.287765330625916e-08
1, 291, 0, 5.265474811722015e-08
1, 292, 0, 2.668906745384447e-06
1, 293, 0, 1.103893083609364e-07
1, 294, 0, 2.266363736680432e-07
1, 295, 0, 5.657958581650746e-07
1, 296, 0, 7.069439078577489e-08
1, 297, 0, 5.737627262192291e-08
1, 298, 0, 8.323188893655242e-08
1, 299, 0, 3.863915765123238e-07
2, 0, 0, 6.238175842554483e-08
2, 1, 0, 7.378060473683945e-08
2, 2, 0, 1.683696041254734e-06
2, 3, 0, 1.514785822109843e-06
2, 4, 0, 6.700895482936176e-08
2, 5, 0, 7.775028620926605e-08
2, 6, 0, 8.373769588843061e-08
2, 7, 0, 9.436260484108061e-08
2, 8, 0, 1.813146468521154e-07
2, 9, 0, 8.847100474440595e-08
2, 10, 0, 1.913852258894622e-07
2, 11, 0, 1.099002204796307e-07
2, 12, 0, 1.814803169963852e-07
2, 13, 0, 3.991780886281049e-06
2, 14, 0, 3.2688888040866e-08
2, 15, 0, 4.916692120104926e-08
2, 16, 0, 4.999575153874503e-08
2, 17, 0, 6.622581594228905e-08
2, 18, 0, 2.729234971354799e-08
2, 19, 0, 9.157749047972175e-08
2, 20, 0, 4.130607678121123e-08
2, 21, 0, 3.446296403808446e-08
2, 22, 0, 7.600378637562244e-08
2, 23, 0, 8.023150854796768e-08
2, 24, 0, 6.817445097340169e-08
2, 25, 0, 7.353789044373116e-08
2, 26, 0, 2.914903873829644e-08
2, 27, 0, 1.059782803736198e-07
2, 28, 0, 3.0844869769453e-08
2, 29, 0, 8.48953902732319e-08
2, 30, 0, 1.166212726388949e-07
2, 31, 0, 3.566937678556314e-08
2, 32, 0, 4.846654633183789e-08
2, 33, 0, 2.116721304901148e-07
2, 34, 0, 1.304400569779318e-07
2, 35, 0, 1.765990589319699e-07
2, 36, 0, 1.691989126584303e-07
2, 37, 0, 2.211819634112544e-07
2, 38, 0, 1.436611540839294e-07
2, 39, 0, 5.227408550467771e-08
2, 40, 0, 1.313850361839286e-07
2, 41, 0, 1.674237495308262e-07
2, 42, 0, 2.107729528688651e-07
2, 43, 0, 1.92913063301603e-07
2, 44, 0, 1.565007750059522e-07
2, 45, 0, 1.801815159296893e-07
2, 46, 0, 1.033863782140543e-06
2, 47, 0, 2.391656721556501e-07
2, 48, 0, 9.725027183549173e-08
2, 49, 0, 2.38891885828707e-07
2, 50, 0, 1.48123206145101e-07
2, 51, 0, 3.637905763298477e-07
2, 52, 0, 9.028216396700373e-08
2, 53, 0, 1.217388643226514e-07
2, 54, 0, 7.265349211138528e-08
2, 55, 0, 5.721826923377193e-08
2, 56, 0, 5.70585001469226e-08
2, 57, 0, 5.109294320959634e-08
2, 58, 0, 2.583691411928157e-07
2, 59, 0, 9.547546397925544e-08
2, 60, 0, 9.497908592948079e-08
2, 61, 0, 5.867868324571646e-08
2, 62, 0, 1.368426012504642e-07
2, 63, 0, 1.939058158484386e-08
2, 64, 0, 1.053630143132978e-07
2, 65, 0, 1.427196281156284e-07
2, 66, 0, 2.484238450506382e-07
2, 67, 0, 6.339900693319578e-08
2, 68, 0, 3.816369797959851e-08
2, 69, 0, 2.833252494838234e-07
2, 70, 0, 1.251008541203191e-07
2, 71, 0, 3.515648074881028e-07
2, 72, 0, 2.115291977133893e-07
2, 73, 0, 1.263650375449288e-07
2, 74, 0, 1.688855348902507e-07
2, 75, 0, 3.712404179623263e-07
2, 76, 0, 1.375109803802843e-07
2, 77, 0, 9.276271129010638e-08
2, 78, 0, 1.054844958048307e-07
2, 79, 0, 2.282803421849167e-07
2, 80, 0, 1.777635816324619e-07
2, 81, 0, 1.795821731320757e-07
2, 82, 0, 7.828554515754149e-08
2, 83, 0, 8.192163249987061e-07
2, 84, 0, 6.275851660575427e-08
2, 85, 0, 8.314871280390435e-08
2, 86, 0, 1.775571831785783e-07
2, 87, 0, 4.15449079582686e-07
2, 88, 0, 2.728444314925582e-07
2, 89, 0, 1.516777814458692e-07
2, 90, 0, 3.153488137286331e-07
2, 91, 0, 8.30449522482013e-08
2, 92, 0, 2.320203265071541e-07
2, 93, 0, 2.336884676878981e-07
2, 94, 0, 1.732116885477808e-07
2, 95, 0, 1.323228104865848e-07
2, 96, 0, 2.395282194811443e-07
2, 97, 0, 2.636163287661475e-07
2, 98, 0, 3.345599566273449e-07
2, 99, 0, 2.766683167010342e-07
2, 100, 0, 2.544005326399201e-07
2, 101, 0, 1.863928446255159e-06
2, 102, 0, 2.409523176538642e-07
2, 103, 0, 1.85911872563338e-07
2, 104, 0, 2.463478949721321e-07
2, 105, 0, 3.900761953445908e-07
2, 106, 0, 2.230772651046209e-07
2, 107, 0, 2.461201802361757e-07
2, 108, 0, 1.914450251661037e-07
2, 109, 0, 1.554132893488713e-07
2, 110, 0, 6.574562689820596e-07
2, 111, 0, 3.614915442540223e-07
2, 112, 0, 7.157065056162537e-07
2, 113, 0, 3.681884948036895e-07
2, 114, 0, 1.555171280642753e-07
2, 115, 0, 2.849872657861852e-07
2, 116, 0, 4.876792445429601e-07
2, 117, 0, 1.688803621391344e-07
2, 118, 0, 2.571147490471049e-07
2, 119, 0, 6.14870089066244e-07
2, 120, 0, 4.371703425931628e-07
2, 121, 0, 1.085653480004112e-06
2, 122, 0, 1.789324386436419e-07
2, 123, 0, 3.832840604900412e-07
2, 124, 0, 3.739080227660452e-07
2, 125, 0, 3.602128515467484e-07
2, 126, 0, 3.543977413755783e-07
2, 127, 0, 1.362315060760011e-07
2, 128, 0, 1.026317022478906e-07
2, 129, 0, 2.809557884120295e-07
2, 130, 0, 2.589779057871056e-07
2, 131, 0, 2.764660962384369e-07
2, 132, 0, 2.672161087957647e-07
2, 133, 0, 2.436024146845739e-07
2, 134, 0, 2.172676971667897e-07
2, 135, 0, 3.963454275890399e-07
2, 136, 0, 2.872661752917338e-07
2, 137, 0, 3.567746773569525e-07
2, 138, 0, 4.47071045073244e-07
2, 139, 0, 3.870213163281733e-07
2, 140, 0, 2.779290468879481e-07
2, 141, 0, 2.715592302138248e-07
2, 142, 0, 1.724804832292648e-07
2, 143, 0, 2.744444884683617e-07
2, 144, 0, 2.47226154215241e-07
2, 145, 0, 2.618012331367936e-07
2, 146, 0, 3.511001693823346e-07
2, 147, 0, 4.98995120779e-07
2, 148, 0, 4.461847993297852e-07
2, 149, 0, 2.420789542156854e-06
2, 150, 0, 3.293125701020472e-07
2, 151, 0, 1.073727048606088e-06
2, 152, 0, 2.011388914979761e-06
2, 153, 0, 2.567309138612472e-06
2, 154, 0, 4.001607294412679e-07
2, 155, 0, 3.632031564393401e-07
2, 156, 0, 4.34335674981412e-07
2, 157, 0, 3.528607521730009e-07
2, 158, 0, 2.815321522575687e-07
2, 159, 0, 3.471498359886027e-07
2, 160, 0, 4.920461265101039e-07
2, 161, 0, 3.558838272965659e-07
2, 162, 0, 2.261056835095587e-07
2, 163, 0, 2.234577749504751e-07
2, 164, 0, 3.19329683406977e-06
2, 165, 0, 4.585837416470895e-07
2, 166, 0, 2.784061621241563e-07
2, 167, 0, 3.220757491817494e-07
2, 168, 0, 3.815509046489751e-07
2, 169, 0, 2.275093265780015e-06
2, 170, 0, 3.087480422436784e-07
2, 171, 0, 2.250979378004558e-06
2, 172, 0, 4.452329847026704e-07
2, 173, 0, 3.364351925938536e-07
2, 174, 0, 2.721031648889038e-07
2, 175, 0, 2.014770501546082e-07
2, 176, 0, 3.648134452305385e-07
2, 177, 0, 4.390362562389782e-07
2, 178, 0, 2.32103062103306e-07
2, 179, 0, 1.595192458125894e-07
2, 180, 0, 1.630233157356997e-07
2, 181, 0, 1.07335843324563e-07
2, 182, 0, 1.538906246878469e-07
2, 183, 0, 2.087117252358439e-07
2, 184, 0, 1.935547118137038e-07
2, 185, 0, 7.875232199694437e-07
2, 186, 0, 3.020322083102656e-06
2, 187, 0, 3.344484582612495e-07
2, 188, 0, 4.873488137491222e-07
2, 189, 0, 4.615100408500439e-07
2, 190, 0, 2.927309310507553e-07
2, 191, 0, 4.066975805017137e-07
2, 192, 0, 4.744842101445101e-07
2, 193, 0, 2.434516375160456e-07
2, 194, 0, 5.401470275501197e-07
2, 195, 0, 3.719675021329749e-07
2, 196, 0, 3.225846114673914e-07
2, 197, 0, 5.591331841969804e-07
2, 198, 0, 2.66017394778828e-07
2, 199, 0, 3.35917178517775e-07
2, 200, 0, 3.472452192454512e-07
2, 201, 0, 2.627354831474804e-07
2, 202, 0, 1.851216211434803e-07
2, 203, 0, 3.040433682599541e-07
2, 204, 0, 1.034788823517374e-07
2, 205, 0, 1.963895215340017e-07
2, 206, 0, 3.908422172571591e-07
2, 207, 0, 1.864539029838852e-07
2, 208, 0, 2.019763343241721e-07
2, 209, 0, 2.168961827919702e-07
2, 210, 0, 3.000161541422131e-07
2, 211, 0, 2.492601538506278e-07
2, 212, 0, 2.898160005315731e-07
2, 213, 0, 4.059504874476261e-07
2, 214, 0, 3.490490030344517e-07
2, 215, 0, 3.231426717320574e-07
2, 216, 0, 2.087540877937499e-07
2, 217, 0, 2.457168761793582e-07
2, 218, 0, 2.273559402965475e-07
2, 219, 0, 2.733997632731189e-07
2, 220, 0, 3.557877334969817e-07
2, 221, 0, 2.423740284029918e-07
2, 222, 0, 1.805605620575079e-07
2, 223, 0, 1.963861677722889e-07
2, 224, 0, 2.072337963454629e-07
2, 225, 0, 2.855641696442035e-07
2, 226, 0, 3.22005462294328e-07
2, 227, 0, 1.133944564912781e-07
2, 228, 0, 2.326798522744866e-07
2, 229, 0, 3.298681008345739e-07
2, 230, 0, 1.361999920845847e-06
2, 231, 0, 9.943013878910278e-08
2, 232, 0, 2.261328120312101e-07
2, 233, 0, 1.545357832810623e-07
2, 234, 0, 1.968183909184518e-07
2, 235, 0, 2.511017669348803e-07
2, 236, 0, 1.559682800689188e-07
2, 237, 0, 7.535204105124649e-08
2, 238, 0, 1.572951049411131e-07
2, 239, 0, 1.88877407936161e-07
2, 240, 0, 1.392233173191926e-07
2, 241, 0, 2.093368465239109e-07
2, 242, 0, 3.7452801393556e-07
2, 243, 0, 1.275378451737197e-07
2, 244, 0, 1.282538590885451e-07
2, 245, 0, 1.936021334358884e-07
2, 246, 0, 2.618999701553548e-07
2, 247, 0, 1.543495926625837e-07
2, 248, 0, 6.507239191932968e-08
2, 249, 0, 2.211925789197267e-07
2, 250, 0, 1.417660797642384e-07
2, 251, 0, 3.142328523608739e-06
2, 252, 0, 8.822376429407086e-08
2, 253, 0, 1.80838739538558e-07
2, 254, 0, 2.1022782448199e-07
2, 255, 0, 1.890948624350131e-07
2, 256, 0, 1.878842113001156e-07
2, 257, 0, 1.282842134742168e-07
2, 258, 0, 1.692696400823479e-07
2, 259, 0, 1.150060455756829e-07
2, 260, 0, 1.392598534266654e-07
2, 261, 0, 1.93201273646082e-07
2, 262, 0, 1.552422901340833e-07
2, 263, 0, 1.090014549731677e-07
2, 264, 0, 1.137099303605282e-07
2, 265, 0, 1.361963910539998e-07
2, 266, 0, 6.663992735411739e-08
2, 267, 0, 7.102897825461696e-08
2, 268, 0, 7.859210882088519e-08
2, 269, 0, 2.102375162849057e-07
2, 270, 0, 1.575056955971377e-07
2, 271, 0, 9.244459420187923e-08
2, 272, 0, 7.166469373487416e-08
2, 273, 0, 1.280220374155761e-07
2, 274, 0, 9.03914170180542e-08
2, 275, 0, 1.159801641392733e-07
2, 276, 0, 1.12989091860527e-07
2, 277, 0, 5.435127903297143e-08
2, 278, 0, 9.042764759215061e-08
2, 279, 0, 2.178806397523658e-07
2, 280, 0, 1.611687281410923e-07
2, 281, 0, 2.375925589603867e-08
2, 282, 0, 2.284360256510354e-08
2, 283, 0, 9.359776065309688e-09
2, 284, 0, 8.287150876640226e-08
2, 285, 0, 5.787302370663383e-08
2, 286, 0, 8.849725219306492e-08
2, 287, 0, 3.504143109012148e-08
2, 288, 0, 4.12636325108906e-08
2, 289, 0, 5.925010171381473e-08
2, 290, 0, 3.292651840069993e-08
2, 291, 0, 6.107327976678789e-08
2, 292, 0, 7.588420203319401e-08
2, 293, 0, 9.115404253634551e-08
2, 294, 0, 3.086400468532702e-08
2, 295, 0, 8.698496856140991e-08
2, 296, 0, 1.041756831909879e-07
2, 297, 0, 8.04710680313292e-08
2, 298, 0, 1.492411740855459e-07
2, 299, 0, 4.232781805058039e-07
3, 0, 0, 1.877672275441e-07
3, 1, 0, 9.206686968354916e-08
3, 2, 0, 6.678099140344784e-08
3, 3, 0, 1.420745405766866e-07
3, 4, 0, 1.55879703811479e-07
3, 5, 0, 1.343761368843843e-07
3, 6, 0, 1.603811909944852e-07
3, 7, 0, 6.728963057867077e-07
3, 8, 0, 4.251822716128117e-08
3, 9, 0, 3.210351806615108e-08
3, 10, 0, 7.851012640003319e-08
3, 11, 0, 8.216650115855373e-08
3, 12, 0, 9.410532442188924e-08
3, 13, 0, 1.966860025959249e-07
