# TOPAS Version: 3.9
# Parameter File: data/topas/input/plan_1b/main_2GySOBP.txt
# Results for scorer: DQeff
# Scored in component: ScoringYBox
# X in 1 bin  of 2 cm
# Y in 300 bins of 0.0666667 cm
# Z in 1 bin  of 2 cm
# Qeff : Sum   
0, 0, 0, 3945.361083984375
0, 1, 0, 3542.83740234375
0, 2, 0, 5118.37939453125
0, 3, 0, 4871.3134765625
0, 4, 0, 4926.01904296875
0, 5, 0, 5451.32275390625
0, 6, 0, 3765.144287109375
0, 7, 0, 5646.32373046875
0, 8, 0, 4745.60498046875
0, 9, 0, 4602.5458984375
0, 10, 0, 3514.795654296875
0, 11, 0, 3496.8583984375
0, 12, 0, 4257.67919921875
0, 13, 0, 4872.291015625
0, 14, 0, 4688.99951171875
0, 15, 0, 5048.82958984375
0, 16, 0, 5442.3916015625
0, 17, 0, 4758.08154296875
0, 18, 0, 5458.859375
0, 19, 0, 4284.67333984375
0, 20, 0, 4825.107421875
0, 21, 0, 4566.75146484375
0, 22, 0, 4665.07373046875
0, 23, 0, 3384.550537109375
0, 24, 0, 5387.14697265625
0, 25, 0, 4826.1806640625
0, 26, 0, 4565.05224609375
0, 27, 0, 6558.2216796875
0, 28, 0, 4936.509765625
0, 29, 0, 4416.33544921875
0, 30, 0, 3370.084716796875
0, 31, 0, 4435.2861328125
0, 32, 0, 4497.56494140625
0, 33, 0, 4921.92919921875
0, 34, 0, 4816.1064453125
0, 35, 0, 4473.07568359375
0, 36, 0, 4127.568359375
0, 37, 0, 4602.15673828125
0, 38, 0, 4761.41015625
0, 39, 0, 5384.9931640625
0, 40, 0, 5259.74267578125
0, 41, 0, 4594.4697265625
0, 42, 0, 5496.330078125
0, 43, 0, 4643.94189453125
0, 44, 0, 4894.8125
0, 45, 0, 4468.46728515625
0, 46, 0, 4179.6650390625
0, 47, 0, 4611.41748046875
0, 48, 0, 5302.78466796875
0, 49, 0, 5064.5791015625
0, 50, 0, 5884.98876953125
0, 51, 0, 4212.25
0, 52, 0, 4114.4501953125
0, 53, 0, 5699.29736328125
0, 54, 0, 4440.22216796875
0, 55, 0, 4919.50732421875
0, 56, 0, 4270.22900390625
0, 57, 0, 2394.74951171875
0, 58, 0, 2060.96484375
0, 59, 0, 1109.358154296875
0, 60, 0, 696.4625244140625
0, 61, 0, 534.9043579101562
0, 62, 0, 354.5601501464844
0, 63, 0, 275.0999755859375
0, 64, 0, 248.7181243896484
0, 65, 0, 226.2451477050781
0, 66, 0, 207.7361907958984
0, 67, 0, 195.3826904296875
0, 68, 0, 185.7317199707031
0, 69, 0, 177.5402984619141
0, 70, 0, 166.9261322021484
0, 71, 0, 163.4305877685547
0, 72, 0, 152.6697692871094
0, 73, 0, 144.8951721191406
0, 74, 0, 143.1119995117188
0, 75, 0, 141.2049560546875
0, 76, 0, 138.7970581054688
0, 77, 0, 135.4506683349609
0, 78, 0, 135.6392517089844
0, 79, 0, 138.8725738525391
0, 80, 0, 134.4561920166016
0, 81, 0, 141.285400390625
0, 82, 0, 135.0795135498047
0, 83, 0, 142.7015380859375
0, 84, 0, 136.2685546875
0, 85, 0, 140.1769866943359
0, 86, 0, 144.4788360595703
0, 87, 0, 143.8642120361328
0, 88, 0, 151.3112030029297
0, 89, 0, 146.4549102783203
0, 90, 0, 146.8375701904297
0, 91, 0, 152.3148956298828
0, 92, 0, 153.9486389160156
0, 93, 0, 151.5413970947266
0, 94, 0, 158.2290344238281
0, 95, 0, 154.5084533691406
0, 96, 0, 152.8313598632812
0, 97, 0, 148.7463531494141
0, 98, 0, 148.4727020263672
0, 99, 0, 151.7735443115234
0, 100, 0, 151.1897125244141
0, 101, 0, 157.3692169189453
0, 102, 0, 151.5687255859375
0, 103, 0, 150.8206024169922
0, 104, 0, 144.4236450195312
0, 105, 0, 150.1397552490234
0, 106, 0, 151.5821990966797
0, 107, 0, 151.9101715087891
0, 108, 0, 153.8966217041016
0, 109, 0, 154.1377410888672
0, 110, 0, 159.2483673095703
0, 111, 0, 157.4999542236328
0, 112, 0, 157.0473937988281
0, 113, 0, 150.2237854003906
0, 114, 0, 153.6800994873047
0, 115, 0, 157.4836120605469
0, 116, 0, 154.9043579101562
0, 117, 0, 157.2835235595703
0, 118, 0, 158.0400390625
0, 119, 0, 152.6869049072266
0, 120, 0, 154.8146209716797
0, 121, 0, 158.00048828125
0, 122, 0, 153.0908508300781
0, 123, 0, 162.5094909667969
0, 124, 0, 162.9637298583984
0, 125, 0, 151.7506713867188
0, 126, 0, 165.4441833496094
0, 127, 0, 155.6833801269531
0, 128, 0, 159.7934722900391
0, 129, 0, 158.4398803710938
0, 130, 0, 153.3701324462891
0, 131, 0, 165.0409545898438
0, 132, 0, 157.0426483154297
0, 133, 0, 153.1634521484375
0, 134, 0, 159.2331085205078
0, 135, 0, 161.1665954589844
0, 136, 0, 160.5550537109375
0, 137, 0, 165.7281646728516
0, 138, 0, 160.4185180664062
0, 139, 0, 158.8471069335938
0, 140, 0, 153.9263916015625
0, 141, 0, 150.8744354248047
0, 142, 0, 158.7510375976562
0, 143, 0, 159.3401489257812
0, 144, 0, 156.0169219970703
0, 145, 0, 152.0898132324219
0, 146, 0, 161.0751190185547
0, 147, 0, 166.0623474121094
0, 148, 0, 161.6533813476562
0, 149, 0, 164.6438903808594
0, 150, 0, 159.5328216552734
0, 151, 0, 161.2049560546875
0, 152, 0, 159.6318969726562
0, 153, 0, 160.5213012695312
0, 154, 0, 163.3844299316406
0, 155, 0, 162.0557403564453
0, 156, 0, 161.7816162109375
0, 157, 0, 160.6770324707031
0, 158, 0, 165.6771087646484
0, 159, 0, 158.5391693115234
0, 160, 0, 160.6644897460938
0, 161, 0, 161.1708068847656
0, 162, 0, 156.0602874755859
0, 163, 0, 165.7113494873047
0, 164, 0, 155.0237121582031
0, 165, 0, 167.7843170166016
0, 166, 0, 164.3578033447266
0, 167, 0, 163.4904174804688
0, 168, 0, 162.0571746826172
0, 169, 0, 161.7151794433594
0, 170, 0, 161.9806671142578
0, 171, 0, 163.9913940429688
0, 172, 0, 158.0753631591797
0, 173, 0, 167.4669647216797
0, 174, 0, 165.0481719970703
0, 175, 0, 157.8457794189453
0, 176, 0, 165.2023010253906
0, 177, 0, 162.0719451904297
0, 178, 0, 168.8038787841797
0, 179, 0, 172.0426788330078
0, 180, 0, 158.137939453125
0, 181, 0, 170.4892883300781
0, 182, 0, 158.4918365478516
0, 183, 0, 163.2816772460938
0, 184, 0, 158.890380859375
0, 185, 0, 164.2412872314453
0, 186, 0, 158.0853576660156
0, 187, 0, 167.0791168212891
0, 188, 0, 162.1028594970703
0, 189, 0, 161.6271209716797
0, 190, 0, 160.9393768310547
0, 191, 0, 167.1305084228516
0, 192, 0, 156.9940948486328
0, 193, 0, 156.9252166748047
0, 194, 0, 166.2248229980469
0, 195, 0, 162.7989807128906
0, 196, 0, 170.9346008300781
0, 197, 0, 167.2348480224609
0, 198, 0, 166.2073822021484
0, 199, 0, 159.6848602294922
0, 200, 0, 163.4579925537109
0, 201, 0, 163.6939239501953
0, 202, 0, 156.3997497558594
0, 203, 0, 164.4759216308594
0, 204, 0, 167.3901519775391
0, 205, 0, 165.3560485839844
0, 206, 0, 164.0847015380859
0, 207, 0, 160.7907104492188
0, 208, 0, 161.37744140625
0, 209, 0, 163.8320617675781
0, 210, 0, 168.0080718994141
0, 211, 0, 171.6020202636719
0, 212, 0, 167.9553527832031
0, 213, 0, 170.6187591552734
0, 214, 0, 159.8312530517578
0, 215, 0, 166.4612579345703
0, 216, 0, 165.7788848876953
0, 217, 0, 168.2771759033203
0, 218, 0, 170.6475067138672
0, 219, 0, 163.4906616210938
0, 220, 0, 159.6898956298828
0, 221, 0, 168.9749298095703
0, 222, 0, 164.8585815429688
0, 223, 0, 170.8726348876953
0, 224, 0, 168.7731018066406
0, 225, 0, 169.1047821044922
0, 226, 0, 162.6542663574219
0, 227, 0, 163.2170104980469
0, 228, 0, 168.4643096923828
0, 229, 0, 171.9461059570312
0, 230, 0, 169.1112976074219
0, 231, 0, 161.6330108642578
0, 232, 0, 170.66748046875
0, 233, 0, 170.9163208007812
0, 234, 0, 168.9537963867188
0, 235, 0, 164.8136596679688
0, 236, 0, 167.6789245605469
0, 237, 0, 174.0447082519531
0, 238, 0, 167.0466003417969
0, 239, 0, 166.3821411132812
0, 240, 0, 170.2632141113281
0, 241, 0, 166.2762298583984
0, 242, 0, 176.6218414306641
0, 243, 0, 178.9558563232422
0, 244, 0, 176.7635498046875
0, 245, 0, 174.4876403808594
0, 246, 0, 170.2057800292969
0, 247, 0, 172.6087341308594
0, 248, 0, 169.538818359375
0, 249, 0, 168.59228515625
0, 250, 0, 172.7911071777344
0, 251, 0, 168.4736785888672
0, 252, 0, 174.0605010986328
0, 253, 0, 170.9231567382812
0, 254, 0, 178.8987884521484
0, 255, 0, 173.2385406494141
0, 256, 0, 168.6918182373047
0, 257, 0, 159.037109375
0, 258, 0, 166.85595703125
0, 259, 0, 174.5293579101562
0, 260, 0, 174.0356292724609
0, 261, 0, 176.4720916748047
0, 262, 0, 174.7967529296875
0, 263, 0, 180.5513610839844
0, 264, 0, 172.4426879882812
0, 265, 0, 175.6162109375
0, 266, 0, 175.3166351318359
0, 267, 0, 166.0504913330078
0, 268, 0, 173.0327301025391
0, 269, 0, 169.5792083740234
0, 270, 0, 177.1241455078125
0, 271, 0, 178.3600463867188
0, 272, 0, 169.2342529296875
0, 273, 0, 175.0987243652344
0, 274, 0, 177.8274688720703
0, 275, 0, 169.9001312255859
0, 276, 0, 173.9207153320312
0, 277, 0, 165.294921875
0, 278, 0, 168.0522308349609
0, 279, 0, 161.2849884033203
0, 280, 0, 171.0200958251953
0, 281, 0, 173.2038879394531
0, 282, 0, 173.3723754882812
0, 283, 0, 173.9765472412109
0, 284, 0, 178.2614593505859
0, 285, 0, 172.7350769042969
0, 286, 0, 175.1862335205078
0, 287, 0, 176.6835479736328
0, 288, 0, 177.7673797607422
0, 289, 0, 177.1500549316406
0, 290, 0, 172.7700347900391
0, 291, 0, 173.5561676025391
0, 292, 0, 166.980712890625
0, 293, 0, 174.1017456054688
0, 294, 0, 164.3243865966797
0, 295, 0, 161.55029296875
0, 296, 0, 177.7468719482422
0, 297, 0, 170.4557647705078
0, 298, 0, 179.9760589599609
0, 299, 0, 163.1373443603516
