# TOPAS Version: 3.9
# Parameter File: data/topas/input/plan_1b/main_2GySOBP.txt
# Results for scorer: Scoring_protonD_XYBox
# Scored in component: ScoringXYBox
# X in 300 bins of 0.0666667 cm
# Y in 300 bins of 0.0666667 cm
# Z in 1 bin  of 2 cm
# DoseToWater ( Gy ) : Sum   
0, 0, 0, 4.712598666856138e-08
0, 1, 0, 1.319289708590077e-06
0, 2, 0, 1.233051847293609e-07
0, 3, 0, 1.437252876712591e-07
0, 4, 0, 4.271143438927538e-08
0, 5, 0, 3.230584866287245e-08
0, 6, 0, 2.22495710744397e-08
0, 7, 0, 3.263800341102296e-09
0, 8, 0, 8.820496333328265e-08
0, 9, 0, 3.692867167615077e-08
0, 10, 0, 7.107455957111597e-08
0, 11, 0, 6.335101687682254e-08
0, 12, 0, 9.11060311636902e-08
0, 13, 0, 6.877881730815716e-08
0, 14, 0, 1.936742819452775e-07
0, 15, 0, 3.73425841360131e-08
0, 16, 0, 6.586708423128584e-08
0, 17, 0, 2.203307936099463e-08
0, 18, 0, 1.301346372883927e-07
0, 19, 0, 1.030926526368603e-07
0, 20, 0, 4.809636777736159e-08
0, 21, 0, 3.553849836634981e-08
0, 22, 0, 7.232267051904273e-08
0, 23, 0, 7.777357069471691e-08
0, 24, 0, 3.684684088511858e-06
0, 25, 0, 1.052599998274673e-07
0, 26, 0, 1.328629366526002e-07
0, 27, 0, 2.399587231138867e-07
0, 28, 0, 9.708202952651845e-08
0, 29, 0, 1.977959698251652e-07
0, 30, 0, 2.623098112053412e-07
0, 31, 0, 1.083114611333258e-07
0, 32, 0, 1.095415029794822e-07
0, 33, 0, 1.032027725500484e-07
0, 34, 0, 6.230939320062134e-09
0, 35, 0, 1.500428368217399e-07
0, 36, 0, 8.57469046877668e-08
0, 37, 0, 4.271108622333486e-08
0, 38, 0, 1.018551429865511e-07
0, 39, 0, 1.076392948107241e-07
0, 40, 0, 7.724059258862326e-08
0, 41, 0, 6.141414132798673e-08
0, 42, 0, 6.274395047967118e-08
0, 43, 0, 7.547464520030189e-08
0, 44, 0, 5.596218954906362e-08
0, 45, 0, 8.162096065689184e-08
0, 46, 0, 2.186539802551124e-07
0, 47, 0, 1.696870697287522e-07
0, 48, 0, 1.496431139003107e-07
0, 49, 0, 8.399281625770527e-08
0, 50, 0, 1.544387032481609e-06
0, 51, 0, 7.712592520192629e-08
0, 52, 0, 7.906940169277732e-08
0, 53, 0, 1.187743308150857e-07
0, 54, 0, 4.966106814663362e-08
0, 55, 0, 4.346373216890242e-08
0, 56, 0, 6.173679167886803e-08
0, 57, 0, 3.247510349524418e-08
0, 58, 0, 9.023710845212918e-08
0, 59, 0, 6.651208650509943e-08
0, 60, 0, 1.407364749184126e-07
0, 61, 0, 1.802393114758161e-07
0, 62, 0, 2.448135489885317e-07
0, 63, 0, 6.95214623647189e-08
0, 64, 0, 2.308659986738348e-06
0, 65, 0, 6.957392884032743e-08
0, 66, 0, 1.65723236023041e-07
0, 67, 0, 7.477655827869967e-08
0, 68, 0, 2.149057394262854e-07
0, 69, 0, 5.219116872012819e-08
0, 70, 0, 1.274831475939209e-07
0, 71, 0, 2.809217392041319e-07
0, 72, 0, 2.722630370044499e-07
0, 73, 0, 2.634282907365559e-07
0, 74, 0, 1.46337455930734e-07
0, 75, 0, 1.727279368424206e-07
0, 76, 0, 1.087003695943167e-07
0, 77, 0, 1.572019954210191e-07
0, 78, 0, 2.104975919792196e-06
0, 79, 0, 1.531613520455721e-07
0, 80, 0, 1.354953980126083e-07
0, 81, 0, 2.195257451376165e-07
0, 82, 0, 2.132028527057628e-07
0, 83, 0, 1.852353648246208e-07
0, 84, 0, 1.061205580299429e-06
0, 85, 0, 3.012402430613292e-06
0, 86, 0, 2.787104449453182e-07
0, 87, 0, 1.854023480518663e-06
0, 88, 0, 8.190870204316525e-08
0, 89, 0, 1.044764985635993e-07
0, 90, 0, 1.448510573709427e-07
0, 91, 0, 2.176697648792469e-07
0, 92, 0, 1.665253677174405e-07
0, 93, 0, 2.543520452036319e-07
0, 94, 0, 2.864343287001248e-07
0, 95, 0, 9.224634140991839e-07
0, 96, 0, 2.854043827937858e-07
0, 97, 0, 4.742778685340454e-07
0, 98, 0, 2.606404905236559e-07
0, 99, 0, 2.136391969997931e-07
0, 100, 0, 6.293664966960932e-08
0, 101, 0, 3.105373878042883e-07
0, 102, 0, 3.57760683300512e-07
0, 103, 0, 1.400551354890922e-06
0, 104, 0, 2.923264617038512e-07
0, 105, 0, 2.425614695766853e-07
0, 106, 0, 1.729874696820843e-07
0, 107, 0, 3.526104705997568e-07
0, 108, 0, 1.687743207412495e-07
0, 109, 0, 2.482754837274115e-07
0, 110, 0, 2.37225890487025e-07
0, 111, 0, 2.391446116689622e-07
0, 112, 0, 1.883363438537344e-07
0, 113, 0, 1.047771206685866e-06
0, 114, 0, 3.333632889734872e-07
0, 115, 0, 3.404547612717579e-07
0, 116, 0, 2.672236973921827e-07
0, 117, 0, 3.439895976953267e-07
0, 118, 0, 2.167077468584466e-07
0, 119, 0, 3.606752159157622e-07
0, 120, 0, 2.68389698021565e-07
0, 121, 0, 2.805079020617995e-06
0, 122, 0, 3.368873251474724e-07
0, 123, 0, 2.100442912933431e-07
0, 124, 0, 3.855579109313112e-07
0, 125, 0, 1.160101916752865e-07
0, 126, 0, 1.211314497595595e-06
0, 127, 0, 2.587571259482502e-07
0, 128, 0, 2.07384132977495e-07
0, 129, 0, 9.48659817368025e-07
0, 130, 0, 2.497066020623606e-07
0, 131, 0, 2.179166926907783e-07
0, 132, 0, 2.830787195762241e-07
0, 133, 0, 3.01414900150121e-07
0, 134, 0, 3.199840818979283e-07
0, 135, 0, 2.294475052622147e-06
0, 136, 0, 2.057374786090804e-06
0, 137, 0, 2.732609800659702e-07
0, 138, 0, 4.241219357936643e-07
0, 139, 0, 2.108889560759053e-07
0, 140, 0, 2.943293395674118e-07
0, 141, 0, 4.218537981159898e-07
0, 142, 0, 3.039091609480238e-07
0, 143, 0, 1.535752005565882e-07
0, 144, 0, 2.865302803911618e-07
0, 145, 0, 2.94203289286088e-07
0, 146, 0, 3.021900454314164e-07
0, 147, 0, 3.270886850259558e-07
0, 148, 0, 2.366932960740087e-07
0, 149, 0, 2.355538271103796e-07
0, 150, 0, 2.950723967387603e-07
0, 151, 0, 1.736186163725506e-07
0, 152, 0, 4.222897302952333e-07
0, 153, 0, 3.476964423043682e-07
0, 154, 0, 3.543674438333255e-07
0, 155, 0, 8.387841603507695e-07
0, 156, 0, 1.294208686886122e-07
0, 157, 0, 2.110714802938674e-07
0, 158, 0, 1.718355946422889e-07
0, 159, 0, 2.228781283974968e-07
0, 160, 0, 1.989043028061133e-07
0, 161, 0, 3.804988750744087e-07
0, 162, 0, 4.088749960828864e-07
0, 163, 0, 1.384785974778424e-07
0, 164, 0, 2.892180361868668e-07
0, 165, 0, 4.236633515120047e-07
0, 166, 0, 3.453565398103819e-07
0, 167, 0, 2.303511621448706e-07
0, 168, 0, 1.821300088522548e-07
0, 169, 0, 1.265735392053102e-07
0, 170, 0, 2.930595144334802e-07
0, 171, 0, 3.118329345852544e-07
0, 172, 0, 3.033630264326348e-06
0, 173, 0, 3.429706509905373e-07
0, 174, 0, 4.942837676935596e-07
0, 175, 0, 2.566388559444022e-07
0, 176, 0, 3.251712712426524e-07
0, 177, 0, 3.096973557603633e-07
0, 178, 0, 2.584478124845191e-07
0, 179, 0, 1.880238329476924e-07
0, 180, 0, 2.467914157477935e-07
0, 181, 0, 2.124208293707852e-07
0, 182, 0, 2.975180564135371e-07
0, 183, 0, 4.893305458608666e-07
0, 184, 0, 2.388536017861043e-07
0, 185, 0, 1.921274446203824e-07
0, 186, 0, 2.980206772917882e-06
0, 187, 0, 2.786970526358346e-06
0, 188, 0, 2.584883702638763e-07
0, 189, 0, 2.828656704423338e-07
0, 190, 0, 3.585190029298246e-07
0, 191, 0, 2.239736716092011e-07
0, 192, 0, 9.379770204986926e-08
0, 193, 0, 9.589442839796902e-08
0, 194, 0, 2.778602379294171e-07
0, 195, 0, 1.334748560566368e-07
0, 196, 0, 5.561882403526397e-07
0, 197, 0, 2.873190396712744e-07
0, 198, 0, 4.261232504632062e-07
0, 199, 0, 2.888380947752012e-07
0, 200, 0, 4.080990549937269e-07
0, 201, 0, 2.409272497061465e-07
0, 202, 0, 2.008145827403496e-07
0, 203, 0, 1.889932974563635e-07
0, 204, 0, 2.037593560544337e-07
0, 205, 0, 2.037505879570745e-07
0, 206, 0, 1.65703625043534e-07
0, 207, 0, 9.488521612865952e-08
0, 208, 0, 2.051854437468137e-07
0, 209, 0, 1.084844640786287e-07
0, 210, 0, 2.359641030125204e-06
0, 211, 0, 1.979383114303346e-06
0, 212, 0, 2.519778092846536e-07
0, 213, 0, 3.443160210281349e-07
0, 214, 0, 2.562406393735728e-07
0, 215, 0, 2.856516232441209e-07
0, 216, 0, 2.125268139252512e-07
0, 217, 0, 2.688284155283327e-07
0, 218, 0, 3.733849212039786e-07
0, 219, 0, 2.366736850945017e-07
0, 220, 0, 3.18898315754268e-07
0, 221, 0, 4.569400857690198e-07
0, 222, 0, 2.275290853503975e-07
0, 223, 0, 2.072360132387985e-07
0, 224, 0, 1.020540949525639e-07
0, 225, 0, 2.424245622023591e-07
0, 226, 0, 1.056825027490049e-07
0, 227, 0, 1.280996428931758e-07
0, 228, 0, 5.390561597096166e-08
0, 229, 0, 7.343478358734501e-08
0, 230, 0, 2.348790957285019e-07
0, 231, 0, 1.500804955867352e-07
0, 232, 0, 2.462806776293291e-07
0, 233, 0, 1.544082834925575e-07
0, 234, 0, 7.139738755768121e-08
0, 235, 0, 9.622494445693519e-08
0, 236, 0, 1.176794484081256e-07
0, 237, 0, 1.746670221791646e-07
0, 238, 0, 1.619322205215212e-07
0, 239, 0, 1.660756538512942e-06
0, 240, 0, 1.208884441439295e-07
0, 241, 0, 1.605451274144798e-07
0, 242, 0, 2.339633482506542e-07
0, 243, 0, 3.385297731028913e-08
0, 244, 0, 6.88880419374982e-08
0, 245, 0, 1.446278616867858e-07
0, 246, 0, 1.338122359584304e-07
0, 247, 0, 1.188333413892906e-07
0, 248, 0, 2.220582331347032e-07
0, 249, 0, 2.194933159671564e-07
0, 250, 0, 1.976416825755223e-07
0, 251, 0, 1.261498425719765e-07
0, 252, 0, 1.292316795797888e-07
0, 253, 0, 1.076923865639401e-07
0, 254, 0, 2.387610322784894e-07
0, 255, 0, 1.957320563406029e-07
0, 256, 0, 2.646859002197743e-06
0, 257, 0, 2.633949236496846e-07
0, 258, 0, 1.915135783292499e-07
0, 259, 0, 1.056037461921733e-07
0, 260, 0, 1.228940504915954e-07
0, 261, 0, 1.286540936007441e-07
0, 262, 0, 2.523624687000847e-07
0, 263, 0, 7.77059142365033e-07
0, 264, 0, 7.823278025398395e-08
0, 265, 0, 1.16201924527104e-07
0, 266, 0, 3.893838496082935e-08
0, 267, 0, 6.937580820931544e-08
0, 268, 0, 7.703660287461389e-08
0, 269, 0, 2.913729417741706e-07
0, 270, 0, 4.202313519385825e-08
0, 271, 0, 1.866178820364439e-07
0, 272, 0, 1.678543668504062e-07
0, 273, 0, 6.263096707925797e-08
0, 274, 0, 1.330414391986778e-07
0, 275, 0, 3.081589028397502e-08
0, 276, 0, 1.118308716741012e-07
0, 277, 0, 1.068239825485762e-07
0, 278, 0, 2.859914260966434e-08
0, 279, 0, 1.244369514097343e-07
0, 280, 0, 1.213300748759139e-07
0, 281, 0, 7.215631825374658e-08
0, 282, 0, 6.618521553036771e-08
0, 283, 0, 9.380891441423955e-08
0, 284, 0, 9.569349401772342e-08
0, 285, 0, 8.004376184089779e-08
0, 286, 0, 6.094989402072315e-08
0, 287, 0, 8.547559104954416e-08
0, 288, 0, 4.008628451401819e-08
0, 289, 0, 8.508217064218115e-08
0, 290, 0, 1.338146944362961e-07
0, 291, 0, 1.062043679667113e-06
0, 292, 0, 1.494809396263008e-07
0, 293, 0, 8.651766734146804e-07
0, 294, 0, 1.302503278566292e-07
0, 295, 0, 2.691040101865383e-08
0, 296, 0, 1.150650277281784e-07
0, 297, 0, 2.176062352532426e-08
0, 298, 0, 1.428098812539247e-07
0, 299, 0, 3.306908240574558e-07
1, 0, 0, 1.830375282452223e-07
1, 1, 0, 2.611544914543629e-06
1, 2, 0, 4.561439936878742e-08
1, 3, 0, 1.101997213481809e-07
1, 4, 0, 8.105691762239076e-08
1, 5, 0, 2.294181733475398e-08
1, 6, 0, 7.270146085147644e-08
1, 7, 0, 7.334064378028415e-08
1, 8, 0, 1.014484354300293e-07
1, 9, 0, 4.094365380069576e-08
1, 10, 0, 2.242653494022306e-07
1, 11, 0, 9.168290659999911e-08
1, 12, 0, 3.000129566999021e-08
1, 13, 0, 1.104278908314882e-07
1, 14, 0, 6.064273350148142e-08
1, 15, 0, 4.644964946010077e-08
1, 16, 0, 4.156097688223781e-08
1, 17, 0, 5.187547458262998e-08
1, 18, 0, 3.64827741350382e-08
1, 19, 0, 2.180099727411289e-07
1, 20, 0, 1.031281584573662e-07
1, 21, 0, 7.925702760758213e-08
1, 22, 0, 2.636153872970226e-08
1, 23, 0, 3.639835455260254e-08
1, 24, 0, 2.121285120892935e-07
1, 25, 0, 1.488259329107677e-07
1, 26, 0, 7.035648650344228e-07
1, 27, 0, 7.317522232597184e-08
1, 28, 0, 1.246827991963073e-07
1, 29, 0, 5.888021448186009e-08
1, 30, 0, 2.090052788616958e-07
1, 31, 0, 2.637944191974384e-07
1, 32, 0, 1.593274419064983e-07
1, 33, 0, 1.791942622730858e-06
1, 34, 0, 1.760619312562994e-07
1, 35, 0, 7.792497314085267e-08
1, 36, 0, 2.7439168093224e-07
1, 37, 0, 3.164756435580784e-06
1, 38, 0, 2.733768944551684e-08
1, 39, 0, 1.646467069349455e-07
1, 40, 0, 1.735672299219004e-07
1, 41, 0, 2.173824441342731e-06
1, 42, 0, 7.983862104765649e-08
1, 43, 0, 1.676239946846181e-07
1, 44, 0, 2.16708326661319e-06
1, 45, 0, 2.782918954835623e-06
1, 46, 0, 2.952636357633764e-08
1, 47, 0, 7.932242596098149e-08
1, 48, 0, 6.1440573517757e-08
1, 49, 0, 1.123269512959268e-07
1, 50, 0, 2.033404058465749e-07
1, 51, 0, 1.653015573310768e-07
1, 52, 0, 1.74030105881684e-07
1, 53, 0, 3.071739627102943e-07
1, 54, 0, 1.445369690600273e-07
1, 55, 0, 1.518876331374486e-07
1, 56, 0, 1.041123720568748e-08
1, 57, 0, 2.66741517407354e-06
1, 58, 0, 1.530494699863993e-07
1, 59, 0, 1.223021541818525e-07
1, 60, 0, 2.916487744641927e-07
1, 61, 0, 2.196866120129926e-07
1, 62, 0, 7.247605537941126e-08
1, 63, 0, 1.037861352415348e-07
1, 64, 0, 1.428901299505014e-07
1, 65, 0, 1.409094238624675e-06
1, 66, 0, 1.01199461255419e-07
1, 67, 0, 2.457169330227771e-07
1, 68, 0, 4.646978482014674e-07
1, 69, 0, 1.268932805942313e-06
1, 70, 0, 1.563892482181473e-07
1, 71, 0, 9.864614014531981e-08
1, 72, 0, 2.4129133180395e-07
1, 73, 0, 2.58229960081735e-07
1, 74, 0, 6.941325381148999e-08
1, 75, 0, 2.001503105475422e-07
1, 76, 0, 4.663082222577941e-07
1, 77, 0, 3.404327060252399e-07
1, 78, 0, 3.067306124648894e-07
1, 79, 0, 1.966385241303215e-07
1, 80, 0, 5.514152334740174e-08
1, 81, 0, 6.312657205853611e-07
1, 82, 0, 8.129254780442352e-08
1, 83, 0, 1.429566367505686e-07
1, 84, 0, 6.162012482491264e-07
1, 85, 0, 3.487291735382314e-07
1, 86, 0, 2.344178483326687e-06
1, 87, 0, 1.358410827378975e-06
1, 88, 0, 2.65721951109299e-07
1, 89, 0, 2.225635142849569e-07
1, 90, 0, 2.7794641255241e-07
1, 91, 0, 1.779687295311305e-07
1, 92, 0, 1.482877252101389e-07
1, 93, 0, 1.127849600379704e-07
1, 94, 0, 5.739343578170519e-07
1, 95, 0, 4.478509936234332e-07
1, 96, 0, 1.934466666853041e-07
1, 97, 0, 3.011005844655301e-07
1, 98, 0, 2.213225229752425e-07
1, 99, 0, 3.549847633621539e-07
1, 100, 0, 2.894976205425337e-07
1, 101, 0, 3.251776945489837e-07
1, 102, 0, 1.966566571809381e-07
1, 103, 0, 1.512039062845361e-07
1, 104, 0, 1.242136931978166e-06
1, 105, 0, 3.147868312680657e-07
1, 106, 0, 1.995251182052016e-07
1, 107, 0, 2.097990545735229e-07
1, 108, 0, 3.077497865433543e-07
1, 109, 0, 1.843553292246725e-07
1, 110, 0, 2.571533457285113e-07
1, 111, 0, 1.850919346679802e-07
1, 112, 0, 1.773262283677468e-06
1, 113, 0, 3.183518174409983e-06
1, 114, 0, 1.080060201275046e-07
1, 115, 0, 2.717671634400176e-07
1, 116, 0, 3.257618743646162e-07
1, 117, 0, 2.772550828922249e-07
1, 118, 0, 7.066620923978917e-07
1, 119, 0, 4.049942390338401e-07
1, 120, 0, 4.582852000112325e-07
1, 121, 0, 4.224468455049646e-07
1, 122, 0, 4.299835154597531e-07
1, 123, 0, 2.530659344301966e-07
1, 124, 0, 3.629184561759757e-07
1, 125, 0, 3.646605932772218e-07
1, 126, 0, 2.201120281597468e-07
1, 127, 0, 7.737914415884006e-07
1, 128, 0, 1.934405190695543e-06
1, 129, 0, 1.637849891267251e-07
1, 130, 0, 2.071970328643147e-07
1, 131, 0, 4.543208831364609e-07
1, 132, 0, 5.10995391778124e-07
1, 133, 0, 4.583875750086008e-07
1, 134, 0, 2.475427720582957e-07
1, 135, 0, 2.097914375553955e-07
1, 136, 0, 5.876762543266523e-07
1, 137, 0, 4.680260019540583e-07
1, 138, 0, 5.1141074663974e-07
1, 139, 0, 3.20624735650199e-07
1, 140, 0, 2.890228927299177e-07
1, 141, 0, 1.875979478427325e-07
1, 142, 0, 2.540319883337361e-07
1, 143, 0, 3.061860809339123e-07
1, 144, 0, 1.821642854338279e-06
1, 145, 0, 3.245584423439141e-07
1, 146, 0, 3.840125657461613e-07
1, 147, 0, 2.08956322467202e-07
1, 148, 0, 3.670606929517817e-07
1, 149, 0, 4.190444258256321e-07
1, 150, 0, 2.641147034410096e-07
1, 151, 0, 2.219086212562615e-07
1, 152, 0, 1.319400979582497e-07
1, 153, 0, 3.041479430976324e-06
1, 154, 0, 2.354798169790229e-07
1, 155, 0, 1.534462967356376e-06
1, 156, 0, 2.694428644645086e-07
1, 157, 0, 2.233977483001581e-07
1, 158, 0, 4.349526534497272e-07
1, 159, 0, 5.73432828332443e-07
1, 160, 0, 2.836792134530697e-07
1, 161, 0, 4.597509644099773e-07
1, 162, 0, 3.867612008434662e-07
1, 163, 0, 4.484376745494956e-07
1, 164, 0, 1.298969038998621e-07
1, 165, 0, 1.39940382837267e-07
1, 166, 0, 3.62612070148316e-07
1, 167, 0, 4.162899358561845e-07
1, 168, 0, 4.060408684836148e-07
1, 169, 0, 1.812551658986195e-06
1, 170, 0, 2.384068409355677e-07
1, 171, 0, 3.904488323769328e-07
1, 172, 0, 3.201295442067931e-07
1, 173, 0, 2.336710736017267e-07
1, 174, 0, 3.27098405250581e-07
1, 175, 0, 6.274923975979618e-07
1, 176, 0, 2.619039491946751e-07
1, 177, 0, 1.343046704960216e-07
1, 178, 0, 2.123212823335052e-07
1, 179, 0, 3.202054017492628e-07
1, 180, 0, 2.053151320069446e-07
1, 181, 0, 2.076905190051548e-07
1, 182, 0, 3.640982413344318e-07
1, 183, 0, 3.417887626255833e-07
1, 184, 0, 1.674291297604213e-06
1, 185, 0, 1.197198429281343e-07
1, 186, 0, 6.176653641887242e-07
1, 187, 0, 1.730553833567683e-07
1, 188, 0, 3.605172480547481e-07
1, 189, 0, 3.710094631514949e-07
1, 190, 0, 3.695293742111971e-07
1, 191, 0, 2.872270101761387e-07
1, 192, 0, 1.350514025943994e-06
1, 193, 0, 1.03069737633632e-07
1, 194, 0, 9.253820820731562e-08
1, 195, 0, 2.36611049331259e-06
1, 196, 0, 1.609313073913654e-07
1, 197, 0, 1.567475464980816e-06
1, 198, 0, 1.341941924692946e-06
1, 199, 0, 4.390335277548729e-07
1, 200, 0, 3.55090890025167e-07
1, 201, 0, 3.075782046835229e-07
1, 202, 0, 3.43921868761754e-07
1, 203, 0, 1.177216120140656e-07
1, 204, 0, 1.777763287691414e-07
1, 205, 0, 2.66796803316538e-07
1, 206, 0, 1.571509500308821e-07
1, 207, 0, 2.334595308184362e-07
1, 208, 0, 2.226944673111575e-07
1, 209, 0, 2.324432841760427e-07
1, 210, 0, 2.589173107025999e-07
1, 211, 0, 1.171457483906124e-06
1, 212, 0, 1.701340295312548e-07
1, 213, 0, 2.248539345828249e-07
1, 214, 0, 5.988574685034109e-07
1, 215, 0, 2.400132359525742e-07
1, 216, 0, 1.277177261727047e-06
1, 217, 0, 1.88137619261397e-07
1, 218, 0, 2.420662781332794e-07
1, 219, 0, 2.210697545024232e-07
1, 220, 0, 1.697192715255369e-06
1, 221, 0, 2.301721337971685e-07
1, 222, 0, 4.116793661523843e-07
1, 223, 0, 2.600116602025082e-07
1, 224, 0, 2.136886365633472e-07
1, 225, 0, 2.48561121907187e-07
1, 226, 0, 4.914609803563508e-07
1, 227, 0, 3.183913577231579e-07
1, 228, 0, 2.575788187186845e-07
1, 229, 0, 1.406980061346985e-07
1, 230, 0, 2.699664207739261e-07
1, 231, 0, 1.523288375437915e-07
1, 232, 0, 1.951877379724465e-07
1, 233, 0, 1.865707019987894e-07
1, 234, 0, 1.874130788337425e-07
1, 235, 0, 2.519432769076957e-07
1, 236, 0, 8.386039240804166e-08
1, 237, 0, 1.407438077194456e-07
1, 238, 0, 2.4233719386757e-07
1, 239, 0, 6.100428606714559e-08
1, 240, 0, 3.949242710632461e-08
1, 241, 0, 2.05059237146088e-07
1, 242, 0, 2.749783334365929e-07
1, 243, 0, 1.197698935584413e-07
1, 244, 0, 3.302862126020045e-07
1, 245, 0, 1.215605038851209e-07
1, 246, 0, 1.6207299324833e-07
1, 247, 0, 1.983965205454297e-07
1, 248, 0, 2.63871783090508e-07
1, 249, 0, 5.283398252231564e-08
1, 250, 0, 1.483747666952695e-07
1, 251, 0, 1.454126277167234e-07
1, 252, 0, 2.087658828031635e-07
1, 253, 0, 2.354947525873285e-07
1, 254, 0, 2.933086022949283e-07
1, 255, 0, 2.10744815376529e-07
1, 256, 0, 1.590664737705083e-07
1, 257, 0, 1.725445457623209e-07
1, 258, 0, 1.570318204358045e-07
1, 259, 0, 1.144241537076596e-07
1, 260, 0, 3.070216081368926e-08
1, 261, 0, 8.69185399210437e-08
1, 262, 0, 6.185796763702456e-08
1, 263, 0, 2.032630135317959e-07
1, 264, 0, 2.254331263884524e-07
1, 265, 0, 9.318037541561353e-08
1, 266, 0, 1.591880192108874e-07
1, 267, 0, 6.878235581098124e-08
1, 268, 0, 5.0453380140425e-08
1, 269, 0, 1.979583430511411e-07
1, 270, 0, 1.497274553230454e-07
1, 271, 0, 4.021303823265043e-08
1, 272, 0, 4.944312337329393e-08
1, 273, 0, 1.267662526061031e-07
1, 274, 0, 2.211276068919688e-07
1, 275, 0, 7.127492551717296e-08
1, 276, 0, 2.96491187157244e-08
1, 277, 0, 1.265889579826762e-07
1, 278, 0, 7.948867164486728e-08
1, 279, 0, 5.052046248010811e-08
1, 280, 0, 1.882162479205363e-07
1, 281, 0, 4.432036959656216e-08
1, 282, 0, 3.342706733633349e-08
1, 283, 0, 2.347475458464032e-07
1, 284, 0, 9.097936981561361e-08
1, 285, 0, 7.253196088186087e-08
1, 286, 0, 1.314364936888524e-07
1, 287, 0, 3.198989872998936e-07
1, 288, 0, 9.437815151613904e-08
1, 289, 0, 4.064391134761536e-08
1, 290, 0, 2.190519126088475e-07
1, 291, 0, 5.092604737910733e-08
1, 292, 0, 4.339131010056008e-08
1, 293, 0, 1.137838196996199e-07
1, 294, 0, 6.870925517432624e-08
1, 295, 0, 2.266921050875226e-08
1, 296, 0, 8.454487243625408e-08
1, 297, 0, 5.23525507389877e-08
1, 298, 0, 6.054060719407062e-08
1, 299, 0, 3.599727165237709e-07
2, 0, 0, 9.208661566617593e-08
2, 1, 0, 7.286302405873357e-08
2, 2, 0, 1.434192000715484e-07
2, 3, 0, 2.604597852950974e-07
2, 4, 0, 1.392552064771735e-07
2, 5, 0, 1.165003098435591e-07
2, 6, 0, 1.683498851434706e-07
2, 7, 0, 9.985240723153765e-08
2, 8, 0, 9.435369747734512e-07
2, 9, 0, 6.903696458948616e-08
2, 10, 0, 1.319281324185795e-07
2, 11, 0, 2.827514933301245e-08
2, 12, 0, 6.313608480468247e-08
2, 13, 0, 4.946291554119853e-08
2, 14, 0, 3.570433193544886e-08
2, 15, 0, 1.766101007660836e-07
2, 16, 0, 4.035628009546599e-08
2, 17, 0, 1.140186441261903e-06
2, 18, 0, 6.562809744536935e-07
2, 19, 0, 1.21769019756357e-07
2, 20, 0, 1.194682539562564e-07
2, 21, 0, 7.448580419122663e-08
2, 22, 0, 1.66302447723865e-06
2, 23, 0, 1.03920797300816e-07
2, 24, 0, 3.157911265816438e-08
2, 25, 0, 1.332683012833513e-07
2, 26, 0, 3.726365207512572e-07
2, 27, 0, 2.051207914632869e-08
2, 28, 0, 1.137216898428051e-07
2, 29, 0, 1.55784150024374e-07
2, 30, 0, 1.21074990033776e-07
2, 31, 0, 1.704117380540993e-07
2, 32, 0, 1.510542233518208e-07
2, 33, 0, 9.716391247138745e-08
2, 34, 0, 9.14731259626933e-08
2, 35, 0, 1.271144327574802e-07
2, 36, 0, 1.670505298534408e-07
2, 37, 0, 2.403194514499774e-07
2, 38, 0, 1.187490354936926e-07
2, 39, 0, 1.557497597559632e-07
2, 40, 0, 1.918804855449707e-06
2, 41, 0, 3.00459851132473e-06
2, 42, 0, 1.064902264147349e-07
2, 43, 0, 1.223454120236056e-07
2, 44, 0, 1.460634564409702e-07
2, 45, 0, 1.86442184713087e-06
2, 46, 0, 1.245841048103102e-07
2, 47, 0, 1.076366658026018e-07
2, 48, 0, 4.173741530166808e-08
2, 49, 0, 2.507933238860005e-08
2, 50, 0, 9.987630846808315e-07
2, 51, 0, 9.170462078600394e-08
2, 52, 0, 1.41931309372012e-07
2, 53, 0, 1.25176256915438e-07
2, 54, 0, 1.225069240717858e-06
2, 55, 0, 9.511418852525821e-08
2, 56, 0, 2.971830781461904e-06
2, 57, 0, 3.451621637395874e-07
2, 58, 0, 9.625284747016849e-08
2, 59, 0, 2.640418870214489e-07
2, 60, 0, 1.875574298537686e-06
2, 61, 0, 1.393665627347218e-07
2, 62, 0, 3.155482204419968e-07
2, 63, 0, 3.208670023013838e-07
2, 64, 0, 1.343326516689558e-06
2, 65, 0, 1.307241063841502e-06
2, 66, 0, 1.122248022511485e-06
2, 67, 0, 9.078190288391852e-08
2, 68, 0, 6.788495454657095e-08
2, 69, 0, 1.16848724474039e-07
2, 70, 0, 2.340185574212228e-07
2, 71, 0, 1.879423905393196e-07
2, 72, 0, 1.761276990919214e-07
2, 73, 0, 1.298848019359866e-06
2, 74, 0, 1.506856364130726e-07
2, 75, 0, 6.535662322448843e-08
2, 76, 0, 2.012799882322724e-07
2, 77, 0, 1.907476132601005e-07
2, 78, 0, 2.279992372677953e-07
2, 79, 0, 1.428115723456358e-07
2, 80, 0, 2.411249795386539e-07
2, 81, 0, 2.26507449951896e-06
2, 82, 0, 9.757158636602981e-08
2, 83, 0, 9.390064548142618e-08
2, 84, 0, 1.890360294964921e-07
2, 85, 0, 2.001906693749333e-07
2, 86, 0, 2.430103336337197e-07
2, 87, 0, 9.43254860885645e-07
2, 88, 0, 4.099163959381258e-07
2, 89, 0, 4.261469541688712e-07
2, 90, 0, 1.954996378117357e-07
2, 91, 0, 1.933619131477826e-07
2, 92, 0, 3.087265270096395e-07
2, 93, 0, 1.72597381720152e-07
2, 94, 0, 2.020231733013134e-07
2, 95, 0, 3.193496525000228e-07
2, 96, 0, 5.086484975436179e-07
2, 97, 0, 3.124082468275446e-07
2, 98, 0, 2.749594898432406e-07
2, 99, 0, 3.183260162131774e-07
2, 100, 0, 3.059214179756964e-07
2, 101, 0, 2.405528789495293e-07
2, 102, 0, 4.073488923950208e-07
2, 103, 0, 1.799866566898345e-07
2, 104, 0, 3.363842608905543e-07
2, 105, 0, 5.118786816638021e-07
2, 106, 0, 3.580899772259727e-07
2, 107, 0, 2.401584708877635e-07
2, 108, 0, 2.186922358760057e-07
2, 109, 0, 2.142111412695158e-07
2, 110, 0, 2.093088795618314e-07
2, 111, 0, 3.159903371852124e-06
2, 112, 0, 2.264808358631853e-07
2, 113, 0, 4.469966370379552e-07
2, 114, 0, 4.386789669297286e-07
2, 115, 0, 1.605011874517004e-07
2, 116, 0, 2.091182977892458e-07
2, 117, 0, 3.378020494437806e-07
2, 118, 0, 3.073751599913521e-07
2, 119, 0, 3.673667379189283e-07
2, 120, 0, 2.48425351401238e-07
2, 121, 0, 7.564909765278571e-07
2, 122, 0, 1.503742510067241e-06
2, 123, 0, 3.526001535192336e-07
2, 124, 0, 3.386516311820742e-07
2, 125, 0, 4.378230755719414e-07
2, 126, 0, 1.76997588141603e-07
2, 127, 0, 3.747748564819631e-07
2, 128, 0, 3.759203082154272e-07
2, 129, 0, 5.814000587633927e-07
2, 130, 0, 4.889325282420032e-07
2, 131, 0, 3.076671077906212e-07
2, 132, 0, 7.645502932973613e-07
2, 133, 0, 3.268492605457141e-07
2, 134, 0, 3.024508146154403e-07
2, 135, 0, 3.724268538007891e-07
2, 136, 0, 1.327353629676509e-06
2, 137, 0, 8.798000976639742e-07
2, 138, 0, 3.760611946290737e-07
2, 139, 0, 3.091509483965638e-07
2, 140, 0, 4.983000962965889e-07
2, 141, 0, 3.579078509119427e-07
2, 142, 0, 1.727581491195451e-07
2, 143, 0, 2.634024269809743e-07
2, 144, 0, 2.855532272860728e-07
2, 145, 0, 2.734471706844488e-07
2, 146, 0, 8.463657081847487e-07
2, 147, 0, 5.392752200350515e-07
2, 148, 0, 2.123287572430854e-07
2, 149, 0, 2.260569118561762e-07
2, 150, 0, 2.583232117103762e-07
2, 151, 0, 1.778933977902852e-07
2, 152, 0, 1.49812206018396e-06
2, 153, 0, 2.716581946060614e-07
2, 154, 0, 4.310976464694249e-07
2, 155, 0, 4.139492375543341e-07
2, 156, 0, 1.865561785052705e-07
2, 157, 0, 2.27383608830678e-07
2, 158, 0, 4.74531020699942e-07
2, 159, 0, 2.498003084383527e-07
2, 160, 0, 2.404825636403984e-07
2, 161, 0, 3.33491834680899e-06
2, 162, 0, 3.382456270628609e-07
2, 163, 0, 8.210384407902893e-07
2, 164, 0, 4.941039605910191e-06
2, 165, 0, 1.660576600670538e-07
2, 166, 0, 2.268783845238431e-07
2, 167, 0, 3.847945038160105e-07
2, 168, 0, 4.615654631834332e-07
2, 169, 0, 1.422858304067631e-06
2, 170, 0, 1.211084736496559e-06
2, 171, 0, 7.041808203211986e-07
2, 172, 0, 5.753601044489187e-07
2, 173, 0, 3.974297726472287e-07
2, 174, 0, 3.839425062324153e-07
2, 175, 0, 5.593642526946496e-07
2, 176, 0, 4.464891674160754e-07
2, 177, 0, 2.778195096198033e-07
2, 178, 0, 1.895875669788438e-07
2, 179, 0, 1.961536639782935e-07
2, 180, 0, 3.372419143943262e-07
2, 181, 0, 2.615417997731129e-07
2, 182, 0, 4.139930922519852e-07
2, 183, 0, 3.83466044695524e-07
2, 184, 0, 2.974062169869285e-07
2, 185, 0, 2.175600428699909e-07
2, 186, 0, 2.698575372050982e-07
2, 187, 0, 1.637835680412536e-07
2, 188, 0, 2.866040347271337e-07
2, 189, 0, 5.186286671232665e-07
2, 190, 0, 8.625789291727415e-07
2, 191, 0, 3.821213852006622e-07
2, 192, 0, 6.305905344561324e-07
2, 193, 0, 3.157862920488697e-06
2, 194, 0, 3.355926594394987e-07
2, 195, 0, 1.751367051383568e-07
2, 196, 0, 2.033665396083961e-07
2, 197, 0, 3.529154071202356e-07
2, 198, 0, 2.718140024171589e-07
2, 199, 0, 4.174318348759698e-07
2, 200, 0, 3.976402638272702e-07
2, 201, 0, 2.777800602871139e-07
2, 202, 0, 2.568059471741435e-07
2, 203, 0, 8.452808515357901e-07
2, 204, 0, 2.757584525170387e-07
2, 205, 0, 4.84076963402913e-07
2, 206, 0, 1.553792827735379e-07
2, 207, 0, 1.91257143455914e-07
2, 208, 0, 1.733006769200074e-07
2, 209, 0, 3.698649493344419e-07
2, 210, 0, 2.667127319000429e-07
2, 211, 0, 2.066408768541805e-07
2, 212, 0, 7.114125537555083e-07
2, 213, 0, 2.666035641141207e-07
2, 214, 0, 2.408749537607946e-07
2, 215, 0, 2.054024434983148e-07
2, 216, 0, 1.258301125517391e-07
2, 217, 0, 1.792841572978432e-07
2, 218, 0, 2.938013210496138e-07
2, 219, 0, 1.783279941491855e-07
2, 220, 0, 5.517889007933263e-07
2, 221, 0, 2.522584736652789e-07
2, 222, 0, 1.905462454487861e-07
2, 223, 0, 2.039068078829587e-07
2, 224, 0, 1.661418167486772e-07
2, 225, 0, 1.866355319180002e-07
2, 226, 0, 1.218810581349317e-07
2, 227, 0, 1.562660969511853e-07
2, 228, 0, 2.523770206153131e-07
2, 229, 0, 2.098510378800711e-07
2, 230, 0, 3.494509428492165e-07
2, 231, 0, 2.291828025136056e-07
2, 232, 0, 2.568487786902551e-07
2, 233, 0, 3.000580818479648e-06
2, 234, 0, 9.488677932267819e-08
2, 235, 0, 1.8441981808337e-07
2, 236, 0, 1.608965050081679e-07
2, 237, 0, 2.645808194756682e-07
2, 238, 0, 2.843487436621217e-07
2, 239, 0, 3.448745928835706e-07
2, 240, 0, 1.691347790711006e-07
2, 241, 0, 1.090504682110804e-07
2, 242, 0, 2.710743558509421e-07
2, 243, 0, 2.453111562772392e-07
2, 244, 0, 3.057324704514031e-07
2, 245, 0, 1.577644752615015e-07
2, 246, 0, 1.987907864986482e-07
2, 247, 0, 3.420564382849989e-07
2, 248, 0, 1.263070714685455e-07
2, 249, 0, 1.309750246036856e-07
2, 250, 0, 1.609483746278784e-07
2, 251, 0, 1.405267084919615e-07
2, 252, 0, 1.450204507591479e-07
2, 253, 0, 3.896719817930716e-07
2, 254, 0, 9.387147770212323e-07
2, 255, 0, 1.737777353127967e-07
2, 256, 0, 1.895636927429223e-07
2, 257, 0, 1.627879129273424e-07
2, 258, 0, 1.920739549632344e-07
2, 259, 0, 2.530688334445585e-07
2, 260, 0, 6.820044973210315e-08
2, 261, 0, 1.084509264615008e-07
2, 262, 0, 5.224029209216496e-08
2, 263, 0, 7.680998947989792e-08
2, 264, 0, 1.50870192783259e-07
2, 265, 0, 4.436930822748764e-08
2, 266, 0, 1.777812741465823e-07
2, 267, 0, 1.218818255210863e-07
2, 268, 0, 1.388552846037783e-07
2, 269, 0, 8.273072893416611e-08
2, 270, 0, 2.326985537592918e-07
2, 271, 0, 6.108549399641561e-08
2, 272, 0, 6.78007694432381e-08
2, 273, 0, 3.843818063842264e-08
2, 274, 0, 1.046816748839774e-07
2, 275, 0, 8.937946205378466e-08
2, 276, 0, 6.119978479546262e-08
2, 277, 0, 3.082858199832117e-07
2, 278, 0, 8.654346572711802e-08
2, 279, 0, 1.147938704093576e-07
2, 280, 0, 1.248731109626533e-07
2, 281, 0, 1.241361360371229e-07
2, 282, 0, 4.488669347324503e-08
2, 283, 0, 1.817194998920968e-07
2, 284, 0, 1.261384170447855e-07
2, 285, 0, 1.399143911839928e-07
2, 286, 0, 1.19843505785866e-07
2, 287, 0, 1.59874986138675e-07
2, 288, 0, 1.271277909609125e-07
2, 289, 0, 4.163594624628786e-08
2, 290, 0, 4.359664984576739e-08
2, 291, 0, 1.486659861882345e-08
2, 292, 0, 3.518517388556575e-08
2, 293, 0, 1.189334284390497e-07
2, 294, 0, 9.007564472085505e-08
2, 295, 0, 6.756796722129366e-08
2, 296, 0, 5.83459858205515e-08
2, 297, 0, 6.204061264725169e-08
2, 298, 0, 6.028142962577476e-08
2, 299, 0, 3.770088881083211e-07
3, 0, 0, 2.120676469985483e-07
3, 1, 0, 2.591831389509025e-07
3, 2, 0, 2.413451340999018e-07
3, 3, 0, 6.150936116000594e-08
3, 4, 0, 7.594945827804622e-08
3, 5, 0, 1.557588262812715e-07
3, 6, 0, 5.881451059508436e-08
3, 7, 0, 9.172836712423305e-08
3, 8, 0, 3.266779557975497e-08
3, 9, 0, 3.878661800627015e-07
3, 10, 0, 5.075867548498536e-08
3, 11, 0, 1.69297129559709e-06
3, 12, 0, 7.298530135813053e-07
3, 13, 0, 3.04605975998129e-07
