# TOPAS Version: 3.7
# Parameter File: data/topas/input/plan_1c/main_2GySOBP.txt
# Results for scorer Scoring_protonD_XYBox
# Scored in component: ScoringXYBox
# X in 300 bins of 0.0666667 cm
# Y in 300 bins of 0.0666667 cm
# Z in 1 bin  of 2 cm
# DoseToWater ( Gy ) : Sum   
0, 0, 0, 2.273915100658996e-07
0, 1, 0, 8.514594185271562e-08
0, 2, 0, 8.11473057638068e-08
0, 3, 0, 9.2851998090282e-08
0, 4, 0, 9.697093616978236e-08
0, 5, 0, 3.425908445819914e-08
0, 6, 0, 1.015976778262484e-07
0, 7, 0, 1.97156836634349e-07
0, 8, 0, 5.578983675036397e-08
0, 9, 0, 1.4432401940212e-07
0, 10, 0, 1.669168625539896e-07
0, 11, 0, 3.089203630679549e-07
0, 12, 0, 1.740777122449799e-07
0, 13, 0, 7.943243929275923e-08
0, 14, 0, 1.066039558850207e-07
0, 15, 0, 6.750605763272688e-08
0, 16, 0, 1.018251083451105e-07
0, 17, 0, 1.437647227930938e-07
0, 18, 0, 1.42068230957193e-07
0, 19, 0, 8.442389543006357e-08
0, 20, 0, 9.842018755534809e-08
0, 21, 0, 4.725862012833204e-08
0, 22, 0, 1.406885701271676e-07
0, 23, 0, 8.811009166720396e-08
0, 24, 0, 2.329603461248553e-07
0, 25, 0, 9.919917687284396e-08
0, 26, 0, 3.78976423576205e-08
0, 27, 0, 1.865660337330155e-08
0, 28, 0, 3.677005366853336e-08
0, 29, 0, 1.742686634997881e-07
0, 30, 0, 8.62354809783028e-08
0, 31, 0, 1.165698506611079e-07
0, 32, 0, 5.765166832816249e-08
0, 33, 0, 1.199211396851751e-07
0, 34, 0, 4.6043219015246e-08
0, 35, 0, 1.182115099140901e-07
0, 36, 0, 9.349780327738699e-08
0, 37, 0, 3.378124517894321e-07
0, 38, 0, 4.214441560179694e-07
0, 39, 0, 1.739780515208622e-07
0, 40, 0, 1.386329699926137e-07
0, 41, 0, 1.203890604983826e-07
0, 42, 0, 3.050159591566626e-07
0, 43, 0, 2.006971300261284e-07
0, 44, 0, 3.47278160006681e-07
0, 45, 0, 1.641298297272442e-07
0, 46, 0, 9.866966621530082e-08
0, 47, 0, 1.777512323997144e-07
0, 48, 0, 4.681650978000107e-07
0, 49, 0, 2.124542106685112e-07
0, 50, 0, 1.373423970107979e-07
0, 51, 0, 9.479252582877962e-08
0, 52, 0, 2.477174803061644e-07
0, 53, 0, 5.383857271112902e-08
0, 54, 0, 3.455916726124997e-07
0, 55, 0, 8.85346267409659e-08
0, 56, 0, 1.799799491664089e-07
0, 57, 0, 5.673532399441683e-08
0, 58, 0, 1.325353196079959e-07
0, 59, 0, 9.33978370198929e-08
0, 60, 0, 2.106642540411485e-07
0, 61, 0, 1.349734048972095e-07
0, 62, 0, 1.08533747322781e-07
0, 63, 0, 1.214330325183255e-07
0, 64, 0, 6.925160533910457e-08
0, 65, 0, 4.20342551876729e-08
0, 66, 0, 1.235264619481313e-07
0, 67, 0, 3.392709686522721e-07
0, 68, 0, 2.561352800967143e-07
0, 69, 0, 1.787341972203649e-07
0, 70, 0, 1.476998505722804e-07
0, 71, 0, 1.347030007536887e-07
0, 72, 0, 1.182153397394359e-07
0, 73, 0, 1.685727397671144e-07
0, 74, 0, 1.936585505291077e-07
0, 75, 0, 1.70849205005652e-07
0, 76, 0, 1.670789799845807e-07
0, 77, 0, 8.938120998891463e-08
0, 78, 0, 1.884968696685974e-07
0, 79, 0, 1.377152472059606e-07
0, 80, 0, 1.524075372572042e-07
0, 81, 0, 5.956025006526033e-08
0, 82, 0, 5.949556793893862e-07
0, 83, 0, 1.715908553023837e-07
0, 84, 0, 3.263072869685857e-07
0, 85, 0, 2.882076444166159e-07
0, 86, 0, 2.365746354371367e-07
0, 87, 0, 1.903393496149874e-07
0, 88, 0, 1.628367698458533e-07
0, 89, 0, 9.040205384280853e-08
0, 90, 0, 1.043290751567838e-07
0, 91, 0, 1.974487986444728e-07
0, 92, 0, 2.832312873124465e-07
0, 93, 0, 2.281115314417548e-07
0, 94, 0, 4.956015118295909e-07
0, 95, 0, 1.680702013118207e-07
0, 96, 0, 3.3665043019937e-07
0, 97, 0, 2.795943316868943e-07
0, 98, 0, 4.386522221011546e-07
0, 99, 0, 2.161307577353e-07
0, 100, 0, 1.317184228355472e-07
0, 101, 0, 1.827995532721616e-07
0, 102, 0, 2.195031498786193e-07
0, 103, 0, 6.054573304936639e-07
0, 104, 0, 2.971794117456739e-07
0, 105, 0, 4.24336064952513e-07
0, 106, 0, 4.112808653644606e-07
0, 107, 0, 5.244422141004179e-07
0, 108, 0, 2.400004177616211e-07
0, 109, 0, 1.816998462800257e-07
0, 110, 0, 4.652030156648834e-07
0, 111, 0, 8.498888632857415e-07
0, 112, 0, 3.076221730680118e-07
0, 113, 0, 7.618459818559131e-08
0, 114, 0, 2.260979812263031e-07
0, 115, 0, 3.290442975867336e-07
0, 116, 0, 2.11242948466861e-07
0, 117, 0, 4.256851298123365e-07
0, 118, 0, 3.397154841877636e-07
0, 119, 0, 3.157051082780526e-07
0, 120, 0, 4.347217554823146e-07
0, 121, 0, 2.166857910879116e-07
0, 122, 0, 4.073796446846245e-07
0, 123, 0, 3.392231064935913e-07
0, 124, 0, 4.890157470072154e-07
0, 125, 0, 6.083969879000506e-07
0, 126, 0, 4.258695582848304e-07
0, 127, 0, 4.732122818040807e-07
0, 128, 0, 2.251586437296282e-07
0, 129, 0, 3.207335907973174e-07
0, 130, 0, 1.649289629312989e-07
0, 131, 0, 2.110599410798386e-07
0, 132, 0, 3.993530981460935e-07
0, 133, 0, 3.872598597354227e-07
0, 134, 0, 3.109275326096395e-07
0, 135, 0, 2.942395269656117e-07
0, 136, 0, 4.409616281009221e-07
0, 137, 0, 2.631270206165937e-07
0, 138, 0, 2.399897596205847e-07
0, 139, 0, 3.339082184083964e-07
0, 140, 0, 7.943791615616647e-07
0, 141, 0, 5.23723826972855e-07
0, 142, 0, 2.670724086328846e-07
0, 143, 0, 3.027592185844696e-07
0, 144, 0, 2.79292663663e-07
0, 145, 0, 3.286959611159546e-07
0, 146, 0, 2.465331760959089e-07
0, 147, 0, 2.735598911840498e-07
0, 148, 0, 3.70047871456336e-07
0, 149, 0, 2.846750817298016e-07
0, 150, 0, 3.801042964823864e-07
0, 151, 0, 2.859502501451061e-07
0, 152, 0, 2.848762790108594e-07
0, 153, 0, 4.555320174404187e-07
0, 154, 0, 4.790514367414289e-07
0, 155, 0, 2.653667934282566e-07
0, 156, 0, 3.916359219147125e-07
0, 157, 0, 5.048231059845421e-07
0, 158, 0, 2.525494267047179e-07
0, 159, 0, 4.801557338396378e-07
0, 160, 0, 6.009441904097912e-07
0, 161, 0, 1.914915088718772e-07
0, 162, 0, 1.430801290780437e-07
0, 163, 0, 1.980501735943108e-07
0, 164, 0, 2.15084497767748e-07
0, 165, 0, 2.61170953308465e-07
0, 166, 0, 2.782785202271043e-07
0, 167, 0, 2.709770683395618e-07
0, 168, 0, 1.741726691761869e-07
0, 169, 0, 1.890467302700927e-07
0, 170, 0, 4.077195399077027e-07
0, 171, 0, 2.50983674732197e-07
0, 172, 0, 3.931508558707719e-07
0, 173, 0, 3.155810759380984e-07
0, 174, 0, 3.384544697837555e-07
0, 175, 0, 3.180698797677906e-07
0, 176, 0, 7.603429139635409e-07
0, 177, 0, 3.870386819926352e-07
0, 178, 0, 4.995197855350852e-07
0, 179, 0, 2.317960650088935e-07
0, 180, 0, 2.111876398203094e-07
0, 181, 0, 2.499130573596631e-07
0, 182, 0, 2.010403221675006e-07
0, 183, 0, 4.004583047390042e-07
0, 184, 0, 1.707399235328921e-07
0, 185, 0, 1.197927730345327e-07
0, 186, 0, 1.901101427392859e-07
0, 187, 0, 3.160608912367024e-07
0, 188, 0, 2.106236252075178e-07
0, 189, 0, 2.887485095470765e-07
0, 190, 0, 4.04640616125107e-07
0, 191, 0, 6.398661298590014e-07
0, 192, 0, 4.551646100026119e-07
0, 193, 0, 3.300471007605665e-07
0, 194, 0, 2.185698804169078e-07
0, 195, 0, 2.634979239246604e-07
0, 196, 0, 2.168535218061152e-07
0, 197, 0, 3.771479555325641e-07
0, 198, 0, 2.992518091105012e-07
0, 199, 0, 3.433941628827597e-07
0, 200, 0, 3.459336710420757e-07
0, 201, 0, 2.112552692778991e-07
0, 202, 0, 3.246206858875667e-07
0, 203, 0, 3.841832665330003e-07
0, 204, 0, 4.298202895824943e-07
0, 205, 0, 2.612810590107983e-07
0, 206, 0, 2.643498078214179e-07
0, 207, 0, 2.192549857227277e-07
0, 208, 0, 3.743171248515864e-07
0, 209, 0, 1.339829793778335e-07
0, 210, 0, 3.036874716144666e-07
0, 211, 0, 3.125516911950399e-07
0, 212, 0, 4.85504244807089e-07
0, 213, 0, 1.028877534281492e-07
0, 214, 0, 1.08223083827852e-07
0, 215, 0, 4.013716647932597e-07
0, 216, 0, 1.996191514308521e-07
0, 217, 0, 3.867982911742729e-07
0, 218, 0, 2.455408889545652e-07
0, 219, 0, 2.108125585209564e-07
0, 220, 0, 8.762076220136805e-08
0, 221, 0, 1.731017107431398e-07
0, 222, 0, 3.461194353349129e-07
0, 223, 0, 2.28890826292627e-07
0, 224, 0, 2.170560833292257e-07
0, 225, 0, 2.319729617283883e-07
0, 226, 0, 1.291316067408843e-07
0, 227, 0, 8.435817733243312e-08
0, 228, 0, 5.21449578627653e-07
0, 229, 0, 3.774312631321664e-07
0, 230, 0, 1.796136359644152e-07
0, 231, 0, 3.606992891036498e-07
0, 232, 0, 2.124570244177448e-07
0, 233, 0, 1.235412270261804e-07
0, 234, 0, 1.726657785638963e-07
0, 235, 0, 1.08909226526066e-07
0, 236, 0, 1.233637902942064e-07
0, 237, 0, 1.544498644534542e-07
0, 238, 0, 1.64609659236703e-07
0, 239, 0, 2.933399798621394e-07
0, 240, 0, 2.370819203179053e-07
0, 241, 0, 2.497794753253402e-07
0, 242, 0, 2.094897837423559e-07
0, 243, 0, 2.286288776076617e-07
0, 244, 0, 1.719087237006534e-07
0, 245, 0, 2.455508081311564e-07
0, 246, 0, 3.065133924451402e-08
0, 247, 0, 3.40801847187322e-07
0, 248, 0, 2.539623267239222e-07
0, 249, 0, 1.468008008487232e-07
0, 250, 0, 2.537892100917816e-07
0, 251, 0, 1.592884615320145e-07
0, 252, 0, 3.201673735020449e-07
0, 253, 0, 2.186463490261303e-07
0, 254, 0, 8.755451119668578e-08
0, 255, 0, 1.929817159407321e-07
0, 256, 0, 1.674733169920728e-07
0, 257, 0, 1.362659531878307e-07
0, 258, 0, 2.302574557688786e-07
0, 259, 0, 3.253234979183617e-07
0, 260, 0, 2.403938879069756e-07
0, 261, 0, 2.076460390298962e-07
0, 262, 0, 1.119993982001688e-07
0, 263, 0, 1.002642093794748e-07
0, 264, 0, 1.019607793750765e-07
0, 265, 0, 3.699199169204803e-08
0, 266, 0, 1.117455354915364e-07
0, 267, 0, 1.996282890104339e-07
0, 268, 0, 8.985818311657567e-08
0, 269, 0, 1.773976663344001e-07
0, 270, 0, 6.782854455877896e-08
0, 271, 0, 8.355242187008116e-08
0, 272, 0, 1.810006011737642e-07
0, 273, 0, 1.030480305530546e-07
0, 274, 0, 5.653646084624597e-08
0, 275, 0, 1.241504605786758e-07
0, 276, 0, 7.943084767703112e-08
0, 277, 0, 1.340171706942783e-07
0, 278, 0, 1.064233927650093e-07
0, 279, 0, 1.36670962547214e-07
0, 280, 0, 7.10989382923799e-08
0, 281, 0, 5.29145793848329e-08
0, 282, 0, 3.607544840633636e-08
0, 283, 0, 1.48376187780741e-07
0, 284, 0, 8.642552984383656e-08
0, 285, 0, 9.410132406628691e-08
0, 286, 0, 5.991149976125598e-08
0, 287, 0, 6.531909235718558e-08
0, 288, 0, 9.745807716399213e-08
0, 289, 0, 7.172578619929482e-08
0, 290, 0, 6.690954279520156e-08
0, 291, 0, 5.824787407959775e-08
0, 292, 0, 2.088044368520059e-07
0, 293, 0, 3.473087062388913e-08
0, 294, 0, 3.151945549006996e-08
0, 295, 0, 7.282305602984707e-08
0, 296, 0, 4.994078395270662e-08
0, 297, 0, 5.86093804599841e-08
0, 298, 0, 1.765009471910162e-07
0, 299, 0, 4.159390414315567e-07
1, 0, 0, 4.494622984907437e-08
1, 1, 0, 2.272554411320016e-08
1, 2, 0, 5.489212284714995e-08
1, 3, 0, 1.204192159320883e-07
1, 4, 0, 3.576545850592083e-07
1, 5, 0, 1.301807994735782e-08
1, 6, 0, 9.307297155203287e-09
1, 7, 0, 1.859202569676199e-08
1, 8, 0, 2.201883972929863e-07
1, 9, 0, 8.5305821073689e-08
1, 10, 0, 2.043785372052298e-07
1, 11, 0, 1.884511391381238e-07
1, 12, 0, 7.261352408249877e-08
1, 13, 0, 1.075428812669088e-07
1, 14, 0, 1.855737394862444e-07
1, 15, 0, 5.291676075103169e-08
1, 16, 0, 2.134758716465512e-07
1, 17, 0, 1.011157024777276e-07
1, 18, 0, 4.041684746880492e-07
1, 19, 0, 1.50232693840735e-07
1, 20, 0, 1.803660296673115e-07
1, 21, 0, 5.43843832190305e-08
1, 22, 0, 6.457393197933925e-08
1, 23, 0, 1.385737391501607e-07
1, 24, 0, 2.043643689830787e-07
1, 25, 0, 9.966257152882463e-08
1, 26, 0, 5.955929793799442e-08
1, 27, 0, 1.515264358431523e-07
1, 28, 0, 4.441991308112847e-08
1, 29, 0, 1.11229212507169e-07
1, 30, 0, 3.250579183600166e-08
1, 31, 0, 8.144397867226871e-08
1, 32, 0, 7.565527937458683e-08
1, 33, 0, 1.572165899688116e-07
1, 34, 0, 1.159995832722416e-07
1, 35, 0, 2.125861087165504e-08
1, 36, 0, 1.166783221151491e-07
1, 37, 0, 1.514161169779982e-07
1, 38, 0, 7.498361753732752e-08
1, 39, 0, 7.267428259183362e-08
1, 40, 0, 1.028585003837179e-07
1, 41, 0, 2.163395436127757e-07
1, 42, 0, 9.980757909033855e-08
1, 43, 0, 1.492255279345045e-07
1, 44, 0, 2.714653568602898e-08
1, 45, 0, 1.855181466225986e-07
1, 46, 0, 2.424473564133223e-07
1, 47, 0, 3.504344192606368e-07
1, 48, 0, 3.778525226039164e-08
1, 49, 0, 2.490487247541751e-07
1, 50, 0, 2.99515278356921e-07
1, 51, 0, 1.841713981320936e-07
1, 52, 0, 1.111924916585849e-07
1, 53, 0, 1.267927842718564e-07
1, 54, 0, 3.723549184542208e-07
1, 55, 0, 8.110018967499855e-08
1, 56, 0, 9.015376178922452e-08
1, 57, 0, 1.447278208388525e-07
1, 58, 0, 1.040153776443731e-07
1, 59, 0, 1.232604773804269e-07
1, 60, 0, 1.693217654974433e-07
1, 61, 0, 5.33039639094568e-08
1, 62, 0, 1.362779897817745e-07
1, 63, 0, 6.01124980903478e-08
1, 64, 0, 5.325297891545233e-08
1, 65, 0, 7.517425615333195e-08
1, 66, 0, 3.290796257715556e-08
1, 67, 0, 7.176803507036311e-08
1, 68, 0, 1.137559593189508e-07
1, 69, 0, 2.649884436323191e-07
1, 70, 0, 7.518575984022391e-08
1, 71, 0, 7.933792289804842e-08
1, 72, 0, 3.466577993549436e-07
1, 73, 0, 2.974271353650693e-07
1, 74, 0, 2.491699717666052e-07
1, 75, 0, 1.696437834652897e-07
1, 76, 0, 8.603503687254488e-08
1, 77, 0, 1.501453681385101e-07
1, 78, 0, 1.643237368398331e-07
1, 79, 0, 1.664103166376663e-07
1, 80, 0, 1.035210672739595e-07
1, 81, 0, 2.386715607372025e-07
1, 82, 0, 1.979771298010746e-07
1, 83, 0, 2.039882787130409e-07
1, 84, 0, 6.530433438456384e-08
1, 85, 0, 9.626289454445214e-08
1, 86, 0, 3.386191735899047e-07
1, 87, 0, 3.625633269166428e-07
1, 88, 0, 2.423485625513422e-07
1, 89, 0, 9.110664933587032e-08
1, 90, 0, 1.354432441758036e-07
1, 91, 0, 1.020449289512726e-07
1, 92, 0, 1.127943249912278e-07
1, 93, 0, 1.942775611496472e-07
1, 94, 0, 2.300453729731089e-07
1, 95, 0, 2.718422535963327e-07
1, 96, 0, 2.446233509090234e-07
1, 97, 0, 3.490456776944484e-07
1, 98, 0, 2.397430876044382e-07
1, 99, 0, 2.444440951876459e-07
1, 100, 0, 2.160475389700878e-07
1, 101, 0, 1.731397105686483e-07
1, 102, 0, 2.057686288026161e-07
1, 103, 0, 2.935709346729709e-07
1, 104, 0, 3.467124827238877e-07
1, 105, 0, 3.773303944853978e-07
1, 106, 0, 5.472632551573042e-07
1, 107, 0, 4.517180514085339e-07
1, 108, 0, 2.700549543988018e-07
1, 109, 0, 3.342899788094655e-07
1, 110, 0, 3.02777863225856e-07
1, 111, 0, 2.620564885091881e-07
1, 112, 0, 2.944324535292253e-07
1, 113, 0, 5.987286613162723e-07
1, 114, 0, 2.606772397939494e-07
1, 115, 0, 2.148960049908055e-07
1, 116, 0, 2.202419295826985e-07
1, 117, 0, 2.837385864040698e-07
1, 118, 0, 1.163540801485397e-07
1, 119, 0, 2.514468064873654e-07
1, 120, 0, 2.474243103733897e-07
1, 121, 0, 4.469909811177786e-07
1, 122, 0, 3.505575989493082e-07
1, 123, 0, 5.941156473454612e-07
1, 124, 0, 4.288237676064455e-07
1, 125, 0, 3.876087362186809e-07
1, 126, 0, 5.525342885448481e-07
1, 127, 0, 4.561328807994869e-07
1, 128, 0, 3.482220733985741e-07
1, 129, 0, 5.10378754370322e-07
1, 130, 0, 3.556561694040283e-07
1, 131, 0, 1.827119291419876e-07
1, 132, 0, 2.352353760670667e-07
1, 133, 0, 2.996676471411774e-07
1, 134, 0, 3.553738849859656e-07
1, 135, 0, 2.858925824966718e-07
1, 136, 0, 4.41813739371355e-07
1, 137, 0, 3.936896177947347e-07
1, 138, 0, 3.121785709936375e-07
1, 139, 0, 2.633414624142461e-07
1, 140, 0, 3.475709036138142e-07
1, 141, 0, 3.308593647943781e-07
1, 142, 0, 1.844114763116522e-07
1, 143, 0, 7.153511774049548e-07
1, 144, 0, 4.342405759416579e-07
1, 145, 0, 2.141456008075693e-07
1, 146, 0, 3.910428176823189e-07
1, 147, 0, 3.030294237760245e-07
1, 148, 0, 3.702266440086532e-07
1, 149, 0, 6.606151714549924e-07
1, 150, 0, 3.34701866222531e-07
1, 151, 0, 6.891329462632712e-07
1, 152, 0, 2.590961116766266e-07
1, 153, 0, 3.244404069846496e-07
1, 154, 0, 4.034743881220493e-07
1, 155, 0, 5.111497216603311e-07
1, 156, 0, 5.584844871009409e-07
1, 157, 0, 4.02165227342266e-07
1, 158, 0, 2.284602373947564e-07
1, 159, 0, 2.865896817638713e-07
1, 160, 0, 4.314424018048157e-07
1, 161, 0, 4.353848055416165e-07
1, 162, 0, 3.506910672967933e-07
1, 163, 0, 5.133105673849059e-07
1, 164, 0, 2.723079148836405e-07
1, 165, 0, 1.508539355654648e-07
1, 166, 0, 2.822747546815663e-07
1, 167, 0, 5.057581233813835e-07
1, 168, 0, 2.949460338186327e-07
1, 169, 0, 2.927945104147511e-07
1, 170, 0, 2.692341070087423e-07
1, 171, 0, 5.921378942730371e-07
1, 172, 0, 4.14402563819749e-07
1, 173, 0, 3.400015486931807e-07
1, 174, 0, 1.270398826136443e-07
1, 175, 0, 4.164433278219803e-07
1, 176, 0, 4.590523872138874e-07
1, 177, 0, 3.69628679663947e-07
1, 178, 0, 2.396724880782131e-07
1, 179, 0, 6.881662102387054e-07
1, 180, 0, 2.7585369366534e-07
1, 181, 0, 2.827262903792871e-07
1, 182, 0, 4.803771957995195e-07
1, 183, 0, 2.590575149952201e-07
1, 184, 0, 4.185795319244789e-07
1, 185, 0, 2.806104646424501e-07
1, 186, 0, 2.215439280917053e-07
1, 187, 0, 3.099777927673131e-07
1, 188, 0, 3.926456031422276e-07
1, 189, 0, 2.834648284988361e-07
1, 190, 0, 2.524447495488857e-07
1, 191, 0, 3.526446619162016e-07
1, 192, 0, 3.139206512514647e-07
1, 193, 0, 3.510431554332172e-07
1, 194, 0, 3.510345152335503e-07
1, 195, 0, 2.521045132652944e-07
1, 196, 0, 3.754350643703219e-07
1, 197, 0, 2.179736782181863e-07
1, 198, 0, 2.974011579226499e-07
1, 199, 0, 2.099560134638523e-07
1, 200, 0, 3.377426764927804e-07
1, 201, 0, 3.029407764643111e-07
1, 202, 0, 2.026043830483104e-07
1, 203, 0, 2.742634990227089e-07
1, 204, 0, 4.343781654370105e-07
1, 205, 0, 2.182638638714707e-07
1, 206, 0, 3.632031280176307e-07
1, 207, 0, 2.116132122864656e-07
1, 208, 0, 1.623005374540298e-07
1, 209, 0, 2.709231239350629e-07
1, 210, 0, 1.286923065890733e-07
1, 211, 0, 5.420092747954186e-07
1, 212, 0, 2.69446189804512e-07
1, 213, 0, 1.764445443086515e-07
1, 214, 0, 1.876209125839523e-07
1, 215, 0, 3.158922936563613e-07
1, 216, 0, 2.424759486530093e-07
1, 217, 0, 1.484641387605734e-07
1, 218, 0, 3.114047615326854e-07
1, 219, 0, 1.293851425998582e-07
1, 220, 0, 2.291277496624389e-07
1, 221, 0, 2.807299495088955e-07
1, 222, 0, 3.477333621049183e-07
1, 223, 0, 2.718870177886856e-07
1, 224, 0, 3.597272097977111e-07
1, 225, 0, 1.573152417222445e-07
1, 226, 0, 1.763415582445305e-07
1, 227, 0, 2.096168145726551e-07
1, 228, 0, 1.557885269676262e-07
1, 229, 0, 3.110802708761184e-07
1, 230, 0, 2.600138202524249e-07
1, 231, 0, 3.02632258808444e-07
1, 232, 0, 1.66761111586311e-07
1, 233, 0, 7.945600088987703e-08
1, 234, 0, 2.090279451749666e-07
1, 235, 0, 1.047176496626889e-07
1, 236, 0, 1.128396647231966e-07
1, 237, 0, 1.293498854693098e-07
1, 238, 0, 1.737732588935614e-07
1, 239, 0, 2.431874293051806e-07
1, 240, 0, 1.639990472313002e-07
1, 241, 0, 2.914953540766874e-07
1, 242, 0, 1.798675128839022e-07
1, 243, 0, 1.560944866696445e-07
1, 244, 0, 2.294172389838423e-07
1, 245, 0, 3.773840546728024e-07
1, 246, 0, 1.198312418182468e-07
1, 247, 0, 1.447930912945594e-07
1, 248, 0, 1.679900378803723e-07
1, 249, 0, 1.40275446369742e-07
1, 250, 0, 8.997137967980962e-08
1, 251, 0, 1.114748258146392e-07
1, 252, 0, 1.211420936897412e-07
1, 253, 0, 1.070170156936001e-07
1, 254, 0, 9.448189075556002e-08
1, 255, 0, 7.831157944337974e-08
1, 256, 0, 4.951588721269218e-07
1, 257, 0, 9.813922474677383e-08
1, 258, 0, 1.10478673320813e-07
1, 259, 0, 1.683724804024678e-07
1, 260, 0, 5.030362970614988e-08
1, 261, 0, 1.036673893395346e-07
1, 262, 0, 2.344096259321304e-07
1, 263, 0, 2.645965651026927e-07
1, 264, 0, 1.9218919078412e-07
1, 265, 0, 5.828378846217674e-08
1, 266, 0, 7.053968431591784e-08
1, 267, 0, 4.654128460401807e-08
1, 268, 0, 1.364367108180886e-07
1, 269, 0, 1.032830425629072e-07
1, 270, 0, 5.826477078585413e-08
1, 271, 0, 1.196606120856814e-07
1, 272, 0, 1.643639961912413e-07
1, 273, 0, 1.620069696173232e-07
1, 274, 0, 8.195378597974923e-08
1, 275, 0, 1.583388637982353e-07
1, 276, 0, 4.959186128417059e-08
1, 277, 0, 9.486642227329867e-08
1, 278, 0, 1.46441792026053e-07
1, 279, 0, 1.02070529806042e-07
1, 280, 0, 7.912338162441301e-08
1, 281, 0, 1.426922437985922e-07
1, 282, 0, 1.122809010212222e-07
1, 283, 0, 1.121811834536857e-07
1, 284, 0, 7.998779238960196e-08
1, 285, 0, 8.869412937428933e-08
1, 286, 0, 5.302956296304728e-08
1, 287, 0, 1.895516845706879e-07
1, 288, 0, 9.906866438313955e-08
1, 289, 0, 1.63258420116108e-07
1, 290, 0, 1.049203461889192e-07
1, 291, 0, 5.388669777062205e-08
1, 292, 0, 5.522268509139394e-08
1, 293, 0, 6.708764743734719e-08
1, 294, 0, 3.463074094156582e-08
1, 295, 0, 5.387550316982015e-08
1, 296, 0, 1.325931577866868e-07
1, 297, 0, 1.357111329980398e-07
1, 298, 0, 1.397008819736811e-08
1, 299, 0, 5.174620127945673e-07
2, 0, 0, 1.281422470356119e-07
2, 1, 0, 1.539429064223441e-07
2, 2, 0, 3.094934442060548e-08
2, 3, 0, 5.410464609667542e-08
2, 4, 0, 4.372744299985243e-08
2, 5, 0, 2.983379232546213e-08
2, 6, 0, 3.22374660299829e-08
2, 7, 0, 1.089464305437104e-07
2, 8, 0, 9.130234701615336e-08
2, 9, 0, 2.000376753130695e-08
2, 10, 0, 5.302004879581546e-08
2, 11, 0, 1.027524092478416e-07
2, 12, 0, 6.626066806347808e-08
2, 13, 0, 2.636692784108163e-07
2, 14, 0, 1.126177693322461e-07
2, 15, 0, 5.610502995523348e-08
2, 16, 0, 1.197374785988359e-07
2, 17, 0, 2.250127693059767e-07
2, 18, 0, 2.543861796766578e-07
2, 19, 0, 1.221383882921145e-07
2, 20, 0, 8.884874347359073e-08
2, 21, 0, 1.011220120972212e-07
2, 22, 0, 3.576188234433175e-08
2, 23, 0, 2.120250641723942e-08
2, 24, 0, 7.872757379345785e-08
2, 25, 0, 5.448361051207939e-08
2, 26, 0, 2.564208578803573e-08
2, 27, 0, 1.106561384744964e-07
2, 28, 0, 1.271505141176021e-07
2, 29, 0, 8.28535036134781e-08
2, 30, 0, 3.209143244475854e-07
2, 31, 0, 4.708732959102235e-08
2, 32, 0, 3.11064326297128e-07
2, 33, 0, 6.564646781725969e-08
2, 34, 0, 1.040620034586937e-07
2, 35, 0, 1.01147541897717e-07
2, 36, 0, 7.737895657555782e-08
2, 37, 0, 1.03548337904158e-07
2, 38, 0, 1.122621640092802e-07
2, 39, 0, 9.492173802527759e-08
2, 40, 0, 3.020810197540413e-07
2, 41, 0, 2.503956295640819e-07
2, 42, 0, 2.8949381203347e-07
2, 43, 0, 1.691181523710839e-07
2, 44, 0, 1.832861755701742e-07
2, 45, 0, 1.158642177756519e-07
2, 46, 0, 1.740100827873903e-07
2, 47, 0, 4.127032298129052e-07
2, 48, 0, 1.571282552959019e-07
2, 49, 0, 5.22616190323788e-08
2, 50, 0, 2.409821320270567e-07
2, 51, 0, 8.088119329840993e-08
2, 52, 0, 1.643211646751297e-07
2, 53, 0, 4.294778079838579e-07
2, 54, 0, 3.985321939126152e-07
2, 55, 0, 3.112704405339173e-08
2, 56, 0, 4.458677338448069e-08
2, 57, 0, 1.134570766225806e-07
2, 58, 0, 3.934934227345366e-07
2, 59, 0, 2.805375061143422e-07
2, 60, 0, 3.027383570497477e-07
2, 61, 0, 1.849693092026428e-07
2, 62, 0, 7.558615067182473e-08
2, 63, 0, 2.228746183163821e-07
2, 64, 0, 6.901154847582802e-08
2, 65, 0, 1.041647692545666e-07
2, 66, 0, 3.222350244413974e-07
2, 67, 0, 1.228103343464682e-07
2, 68, 0, 6.422686738005723e-08
2, 69, 0, 1.065006642875233e-07
2, 70, 0, 5.13950553227005e-08
2, 71, 0, 3.155816230560049e-08
2, 72, 0, 1.306477486195945e-07
2, 73, 0, 9.933012989904455e-08
2, 74, 0, 3.059270170524542e-07
2, 75, 0, 8.399028672556597e-08
2, 76, 0, 2.43632399588023e-07
2, 77, 0, 2.554382945163525e-07
2, 78, 0, 5.944992409467886e-08
2, 79, 0, 4.6503590311886e-08
2, 80, 0, 6.780492611824229e-08
2, 81, 0, 1.728139551460117e-07
2, 82, 0, 2.152773674879427e-07
2, 83, 0, 1.473216713065995e-07
2, 84, 0, 3.249142537242733e-07
2, 85, 0, 3.70393067328223e-08
2, 86, 0, 2.973727362132195e-07
2, 87, 0, 1.477588682519126e-07
2, 88, 0, 3.403988557693083e-07
2, 89, 0, 2.676356416486669e-07
2, 90, 0, 2.320753083040472e-07
2, 91, 0, 1.478621669548374e-07
2, 92, 0, 2.357178061629384e-07
2, 93, 0, 1.652887249292689e-07
2, 94, 0, 2.223369790499419e-07
2, 95, 0, 1.301750103266386e-07
2, 96, 0, 2.224270332362721e-07
2, 97, 0, 2.268893979362474e-07
2, 98, 0, 3.860433537283825e-07
2, 99, 0, 2.715740095027286e-07
2, 100, 0, 1.557791904360784e-07
2, 101, 0, 2.834442227594991e-07
2, 102, 0, 2.495808075764216e-07
2, 103, 0, 4.749405206894153e-07
2, 104, 0, 2.831217216225923e-07
2, 105, 0, 2.293528211794182e-07
2, 106, 0, 6.961438998587255e-07
2, 107, 0, 4.409057510201819e-07
2, 108, 0, 7.082888373588503e-07
2, 109, 0, 3.931989169814187e-07
2, 110, 0, 6.350342687255761e-07
2, 111, 0, 3.604814367008657e-07
2, 112, 0, 3.987110517300607e-07
2, 113, 0, 3.886777051320678e-07
2, 114, 0, 2.363325961596274e-07
2, 115, 0, 1.445395696464402e-07
2, 116, 0, 4.42354433971559e-07
2, 117, 0, 2.160330154765688e-07
2, 118, 0, 4.983435246685985e-07
2, 119, 0, 2.499728282145952e-07
2, 120, 0, 4.169027363332134e-07
2, 121, 0, 5.309939297148958e-07
2, 122, 0, 2.907954126385448e-07
2, 123, 0, 4.254967791439412e-07
2, 124, 0, 2.293790686280772e-07
2, 125, 0, 2.255634257153361e-07
2, 126, 0, 1.870483430366221e-07
2, 127, 0, 3.28047264019915e-07
2, 128, 0, 3.27284624290769e-07
2, 129, 0, 4.442050283159915e-07
2, 130, 0, 3.589544803617173e-07
2, 131, 0, 4.511221618486161e-07
2, 132, 0, 3.918547690773266e-07
2, 133, 0, 3.774231629449787e-07
2, 134, 0, 2.410941988273407e-07
2, 135, 0, 5.431315344139875e-07
2, 136, 0, 5.797091375825403e-07
2, 137, 0, 2.340671017009299e-07
2, 138, 0, 2.240988550283873e-07
2, 139, 0, 3.491533959731896e-07
2, 140, 0, 1.314235476002068e-07
2, 141, 0, 2.795489990603528e-07
2, 142, 0, 2.894984163503977e-07
2, 143, 0, 3.384077444934519e-07
2, 144, 0, 2.995629699853453e-07
2, 145, 0, 3.495341047710099e-07
2, 146, 0, 1.574961032702049e-07
2, 147, 0, 2.912319416736864e-07
2, 148, 0, 2.306251900563439e-07
2, 149, 0, 3.018896563844464e-07
2, 150, 0, 2.771616038899083e-07
2, 151, 0, 2.125219680237933e-07
2, 152, 0, 2.596125909803959e-07
2, 153, 0, 7.027301762718707e-07
2, 154, 0, 2.686302309484745e-07
2, 155, 0, 3.248115945098107e-07
2, 156, 0, 7.194882414296444e-07
2, 157, 0, 5.452876621347968e-07
2, 158, 0, 6.369459129018651e-07
2, 159, 0, 3.062480118387612e-07
2, 160, 0, 4.62544022639122e-07
2, 161, 0, 1.953052901626506e-07
2, 162, 0, 3.076006862556824e-07
2, 163, 0, 3.114540163551283e-07
2, 164, 0, 1.977829668931008e-07
2, 165, 0, 3.915748436611466e-07
2, 166, 0, 3.002815560648742e-07
2, 167, 0, 3.575485436613235e-07
2, 168, 0, 7.700724609094323e-07
2, 169, 0, 2.652163573202415e-07
2, 170, 0, 4.579200094667613e-07
2, 171, 0, 3.55207703250926e-07
2, 172, 0, 4.238519863974943e-07
2, 173, 0, 3.299091986264102e-07
2, 174, 0, 3.316880281545309e-07
2, 175, 0, 3.934591177312541e-07
2, 176, 0, 3.621547080001619e-07
2, 177, 0, 3.029421407063637e-07
2, 178, 0, 3.620583584051928e-07
2, 179, 0, 2.073492879617334e-07
2, 180, 0, 2.52074443096717e-07
2, 181, 0, 2.682104423001874e-07
2, 182, 0, 3.759109290513152e-07
2, 183, 0, 2.550833357872762e-07
2, 184, 0, 2.424411036372476e-07
2, 185, 0, 3.322421378015861e-07
2, 186, 0, 3.120152882729599e-07
2, 187, 0, 2.294932812674233e-07
2, 188, 0, 2.112310255597549e-07
2, 189, 0, 1.530898572354999e-07
2, 190, 0, 2.579890292508935e-07
2, 191, 0, 3.930190644041431e-07
2, 192, 0, 3.511449904181063e-07
2, 193, 0, 2.230981976936164e-07
2, 194, 0, 2.980647195727215e-07
2, 195, 0, 5.017743660573615e-07
2, 196, 0, 2.197193680331111e-07
2, 197, 0, 6.262060878725606e-07
2, 198, 0, 2.199145967551885e-07
2, 199, 0, 3.291780501513131e-07
2, 200, 0, 2.885336982672015e-07
2, 201, 0, 2.656371407283586e-07
2, 202, 0, 1.94218145566083e-07
2, 203, 0, 2.851980696050305e-07
2, 204, 0, 3.279084808127664e-07
2, 205, 0, 3.238183126086369e-07
2, 206, 0, 2.826542129241716e-07
2, 207, 0, 2.774358165424928e-07
2, 208, 0, 2.611016043374548e-07
2, 209, 0, 3.290694223778701e-07
2, 210, 0, 4.075248511981044e-07
2, 211, 0, 4.370424733224354e-07
2, 212, 0, 4.47675063242059e-07
2, 213, 0, 2.467794217864139e-07
2, 214, 0, 2.123876186033158e-07
2, 215, 0, 3.503080563405092e-07
2, 216, 0, 1.651620920029018e-07
2, 217, 0, 2.453436707128276e-07
2, 218, 0, 2.891097210522275e-07
2, 219, 0, 3.009021156685776e-07
2, 220, 0, 2.253093214221735e-07
2, 221, 0, 6.047752663107531e-07
2, 222, 0, 2.722234171415039e-07
2, 223, 0, 1.612306874676506e-07
2, 224, 0, 2.555273113102885e-07
2, 225, 0, 2.971875119328615e-07
2, 226, 0, 2.541495973673591e-07
2, 227, 0, 2.538360774906323e-07
2, 228, 0, 2.19530008394031e-07
2, 229, 0, 2.667200362793665e-07
2, 230, 0, 2.371690328573095e-07
2, 231, 0, 1.742383375358258e-07
2, 232, 0, 1.916760936637729e-07
2, 233, 0, 1.791964052699768e-07
2, 234, 0, 1.816015640088153e-07
2, 235, 0, 1.987820752447078e-07
2, 236, 0, 1.026319935704123e-07
2, 237, 0, 2.144212629673348e-07
2, 238, 0, 3.164426516377716e-07
2, 239, 0, 2.040796971414238e-07
2, 240, 0, 1.533457378855019e-07
2, 241, 0, 2.734763597800338e-07
2, 242, 0, 1.180046851345651e-07
2, 243, 0, 2.608129534564796e-07
2, 244, 0, 2.990680343373242e-07
2, 245, 0, 1.235957824974321e-07
2, 246, 0, 2.297425254482732e-07
2, 247, 0, 8.205070400890691e-08
2, 248, 0, 1.33406786062551e-07
2, 249, 0, 1.925499333310654e-07
2, 250, 0, 1.285490753843987e-07
2, 251, 0, 1.495332071499433e-07
2, 252, 0, 1.972310315068171e-07
2, 253, 0, 1.52472765080347e-07
2, 254, 0, 1.230731783152805e-07
2, 255, 0, 8.617884361683537e-08
2, 256, 0, 1.488431990992467e-07
2, 257, 0, 1.205151960448347e-07
2, 258, 0, 7.265843038339881e-08
2, 259, 0, 5.844872674742874e-08
2, 260, 0, 4.745020376617504e-08
2, 261, 0, 9.637244602345163e-08
2, 262, 0, 1.752038656377408e-07
2, 263, 0, 1.634448807408262e-07
2, 264, 0, 8.926945582743429e-08
2, 265, 0, 1.413223742474656e-07
2, 266, 0, 4.829394129046705e-08
2, 267, 0, 1.332403201104171e-07
2, 268, 0, 1.571387997501006e-07
2, 269, 0, 7.984424144069635e-08
2, 270, 0, 1.823712665327548e-07
2, 271, 0, 8.012977303906155e-08
2, 272, 0, 1.582381088383045e-07
2, 273, 0, 1.309359447532188e-07
2, 274, 0, 1.118433701208232e-07
2, 275, 0, 1.436031027424178e-07
2, 276, 0, 5.615991227614359e-08
2, 277, 0, 1.129875784044998e-07
2, 278, 0, 9.138560841392973e-08
2, 279, 0, 3.621391897468129e-08
2, 280, 0, 5.462150198809468e-08
2, 281, 0, 4.468963865633668e-08
2, 282, 0, 5.12538989028144e-08
2, 283, 0, 1.216318565866459e-07
2, 284, 0, 9.27452958876529e-08
2, 285, 0, 6.116392370358881e-08
2, 286, 0, 1.421000490609003e-07
2, 287, 0, 1.077778364333426e-07
2, 288, 0, 1.274553511620979e-07
2, 289, 0, 7.900543153027684e-08
2, 290, 0, 3.199208009618815e-08
2, 291, 0, 4.836362421656304e-08
2, 292, 0, 4.693059096894103e-08
2, 293, 0, 1.034192962379166e-07
2, 294, 0, 9.79416654445231e-08
2, 295, 0, 8.28024226962043e-08
2, 296, 0, 4.902925709870942e-08
2, 297, 0, 2.702953736388736e-07
2, 298, 0, 9.522314314835967e-08
2, 299, 0, 5.112831331643974e-07
3, 0, 0, 1.09606752118907e-07
3, 1, 0, 1.193757981354793e-07
3, 2, 0, 1.442889452363261e-08
3, 3, 0, 6.285163749453204e-07
3, 4, 0, 6.43762732011055e-08
3, 5, 0, 9.830494462903516e-08
3, 6, 0, 3.234781331684644e-07
3, 7, 0, 9.254766730748543e-09
3, 8, 0, 3.270164938840026e-07
3, 9, 0, 1.018820583453817e-07
3, 10, 0, 9.574188908345604e-08
3, 11, 0, 7.509569854846632e-08
3, 12, 0, 3.124177894164859e-08
3, 13, 0, 1.95257271684568e-07
