# TOPAS Version: 3.9
# Parameter File: data/topas/input/plan_1b/main_2GySOBP.txt
# Results for scorer: Scoring_HadronDLET_ZBox
# Scored in component: ScoringYBox
# X in 1 bin  of 2 cm
# Y in 300 bins of 0.0666667 cm
# Z in 1 bin  of 2 cm
# myHadronLET ( MeV/mm/(g/cm3) ) : Sum   
0, 0, 0, 109.6003570556641
0, 1, 0, 83.31008911132812
0, 2, 0, 120.6095123291016
0, 3, 0, 117.4926605224609
0, 4, 0, 139.9649658203125
0, 5, 0, 112.523567199707
0, 6, 0, 82.22398376464844
0, 7, 0, 159.3568115234375
0, 8, 0, 129.7429962158203
0, 9, 0, 103.8724670410156
0, 10, 0, 93.47844696044922
0, 11, 0, 80.90988159179688
0, 12, 0, 122.3876419067383
0, 13, 0, 124.699836730957
0, 14, 0, 128.1027984619141
0, 15, 0, 94.17848205566406
0, 16, 0, 127.1919403076172
0, 17, 0, 112.0143966674805
0, 18, 0, 130.4971313476562
0, 19, 0, 104.7832107543945
0, 20, 0, 114.6061172485352
0, 21, 0, 101.7826843261719
0, 22, 0, 138.1855316162109
0, 23, 0, 72.12648010253906
0, 24, 0, 127.6460952758789
0, 25, 0, 117.5063171386719
0, 26, 0, 111.7687301635742
0, 27, 0, 164.1817779541016
0, 28, 0, 109.5442199707031
0, 29, 0, 103.421012878418
0, 30, 0, 90.93115997314453
0, 31, 0, 112.0485382080078
0, 32, 0, 93.99179840087891
0, 33, 0, 103.0151138305664
0, 34, 0, 114.3808670043945
0, 35, 0, 98.69741058349609
0, 36, 0, 95.84674835205078
0, 37, 0, 118.0629806518555
0, 38, 0, 87.98183441162109
0, 39, 0, 126.0238723754883
0, 40, 0, 125.1233062744141
0, 41, 0, 122.9979476928711
0, 42, 0, 121.2352600097656
0, 43, 0, 110.8487854003906
0, 44, 0, 113.3091278076172
0, 45, 0, 106.8778076171875
0, 46, 0, 103.6860961914062
0, 47, 0, 101.5987777709961
0, 48, 0, 127.5043411254883
0, 49, 0, 115.1479339599609
0, 50, 0, 131.1083068847656
0, 51, 0, 99.47081756591797
0, 52, 0, 100.2098236083984
0, 53, 0, 125.7365493774414
0, 54, 0, 97.50115203857422
0, 55, 0, 124.4910049438477
0, 56, 0, 111.3293304443359
0, 57, 0, 55.47027969360352
0, 58, 0, 56.74680328369141
0, 59, 0, 33.42275619506836
0, 60, 0, 21.95389366149902
0, 61, 0, 19.76568794250488
0, 62, 0, 15.51325511932373
0, 63, 0, 13.6472864151001
0, 64, 0, 12.78553581237793
0, 65, 0, 12.02479457855225
0, 66, 0, 11.33135795593262
0, 67, 0, 10.83584785461426
0, 68, 0, 10.36750793457031
0, 69, 0, 9.904143333435059
0, 70, 0, 9.302287101745605
0, 71, 0, 8.891383171081543
0, 72, 0, 8.317976951599121
0, 73, 0, 7.833699226379395
0, 74, 0, 7.533919811248779
0, 75, 0, 7.276523113250732
0, 76, 0, 7.049838542938232
0, 77, 0, 6.7456955909729
0, 78, 0, 6.685389041900635
0, 79, 0, 6.670764923095703
0, 80, 0, 6.402255535125732
0, 81, 0, 6.577033996582031
0, 82, 0, 6.28554105758667
0, 83, 0, 6.3893723487854
0, 84, 0, 6.301320552825928
0, 85, 0, 6.375045299530029
0, 86, 0, 6.502463340759277
0, 87, 0, 6.445910930633545
0, 88, 0, 6.603687286376953
0, 89, 0, 6.455289363861084
0, 90, 0, 6.414610862731934
0, 91, 0, 6.621865749359131
0, 92, 0, 6.599645137786865
0, 93, 0, 6.477721691131592
0, 94, 0, 6.654404640197754
0, 95, 0, 6.536311626434326
0, 96, 0, 6.474993228912354
0, 97, 0, 6.227049827575684
0, 98, 0, 6.196809768676758
0, 99, 0, 6.316092967987061
0, 100, 0, 6.202568531036377
0, 101, 0, 6.483017444610596
0, 102, 0, 6.252649784088135
0, 103, 0, 6.141823768615723
0, 104, 0, 5.957666873931885
0, 105, 0, 6.166221141815186
0, 106, 0, 6.112308979034424
0, 107, 0, 6.154579639434814
0, 108, 0, 6.242302894592285
0, 109, 0, 6.119888782501221
0, 110, 0, 6.390300273895264
0, 111, 0, 6.226211547851562
0, 112, 0, 6.240878105163574
0, 113, 0, 6.04709529876709
0, 114, 0, 6.085628986358643
0, 115, 0, 6.212501525878906
0, 116, 0, 6.12883472442627
0, 117, 0, 6.201932430267334
0, 118, 0, 6.167639255523682
0, 119, 0, 6.110091209411621
0, 120, 0, 6.115386962890625
0, 121, 0, 6.207168102264404
0, 122, 0, 5.998733043670654
0, 123, 0, 6.310616970062256
0, 124, 0, 6.271745204925537
0, 125, 0, 5.835598945617676
0, 126, 0, 6.379631996154785
0, 127, 0, 6.046788215637207
0, 128, 0, 6.159196853637695
0, 129, 0, 6.108103275299072
0, 130, 0, 5.918450832366943
0, 131, 0, 6.303746223449707
0, 132, 0, 6.071792602539062
0, 133, 0, 5.926712512969971
0, 134, 0, 6.074057102203369
0, 135, 0, 6.241089344024658
0, 136, 0, 6.197794437408447
0, 137, 0, 6.36371374130249
0, 138, 0, 6.146230697631836
0, 139, 0, 5.976413726806641
0, 140, 0, 5.956398010253906
0, 141, 0, 5.719748497009277
0, 142, 0, 6.034607410430908
0, 143, 0, 6.109293460845947
0, 144, 0, 5.882824897766113
0, 145, 0, 5.851259231567383
0, 146, 0, 6.102755069732666
0, 147, 0, 6.247640132904053
0, 148, 0, 6.147909164428711
0, 149, 0, 6.242918968200684
0, 150, 0, 6.051945209503174
0, 151, 0, 6.109216690063477
0, 152, 0, 6.071085929870605
0, 153, 0, 6.01102876663208
0, 154, 0, 6.161833763122559
0, 155, 0, 6.136802196502686
0, 156, 0, 6.174723148345947
0, 157, 0, 6.068683624267578
0, 158, 0, 6.255176067352295
0, 159, 0, 5.999524593353271
0, 160, 0, 6.036998271942139
0, 161, 0, 6.105395793914795
0, 162, 0, 5.881113529205322
0, 163, 0, 6.284115314483643
0, 164, 0, 5.902007102966309
0, 165, 0, 6.264773845672607
0, 166, 0, 6.156610488891602
0, 167, 0, 6.144363880157471
0, 168, 0, 6.106947422027588
0, 169, 0, 6.056850433349609
0, 170, 0, 6.006801128387451
0, 171, 0, 6.210213661193848
0, 172, 0, 5.994332313537598
0, 173, 0, 6.346740245819092
0, 174, 0, 6.172199249267578
0, 175, 0, 5.872030258178711
0, 176, 0, 6.236320495605469
0, 177, 0, 6.165910243988037
0, 178, 0, 6.339274883270264
0, 179, 0, 6.425482273101807
0, 180, 0, 6.040432929992676
0, 181, 0, 6.435914039611816
0, 182, 0, 5.964508533477783
0, 183, 0, 6.192426204681396
0, 184, 0, 5.972828388214111
0, 185, 0, 6.23314380645752
0, 186, 0, 6.000929832458496
0, 187, 0, 6.296806335449219
0, 188, 0, 6.099727153778076
0, 189, 0, 6.087414264678955
0, 190, 0, 6.10296106338501
0, 191, 0, 6.266674041748047
0, 192, 0, 5.9111647605896
0, 193, 0, 5.819982528686523
0, 194, 0, 6.275900840759277
0, 195, 0, 6.16497802734375
0, 196, 0, 6.416653156280518
0, 197, 0, 6.312638282775879
0, 198, 0, 6.134524822235107
0, 199, 0, 6.080982685089111
0, 200, 0, 6.164451599121094
0, 201, 0, 6.134566307067871
0, 202, 0, 5.955533027648926
0, 203, 0, 6.178243637084961
0, 204, 0, 6.303046703338623
0, 205, 0, 6.262667179107666
0, 206, 0, 6.213956832885742
0, 207, 0, 6.095083713531494
0, 208, 0, 6.078592777252197
0, 209, 0, 6.167924880981445
0, 210, 0, 6.345499515533447
0, 211, 0, 6.572607517242432
0, 212, 0, 6.393851280212402
0, 213, 0, 6.406326770782471
0, 214, 0, 6.081464290618896
0, 215, 0, 6.299391746520996
0, 216, 0, 6.258114814758301
0, 217, 0, 6.394078254699707
0, 218, 0, 6.394156455993652
0, 219, 0, 6.153107643127441
0, 220, 0, 5.936447620391846
0, 221, 0, 6.37575626373291
0, 222, 0, 6.178000926971436
0, 223, 0, 6.230891227722168
0, 224, 0, 6.184856414794922
0, 225, 0, 6.287764072418213
0, 226, 0, 5.964512825012207
0, 227, 0, 6.006889820098877
0, 228, 0, 6.180606365203857
0, 229, 0, 6.299996376037598
0, 230, 0, 6.171356201171875
0, 231, 0, 5.946183681488037
0, 232, 0, 6.241217136383057
0, 233, 0, 6.22114896774292
0, 234, 0, 6.175085544586182
0, 235, 0, 6.019240856170654
0, 236, 0, 6.12788200378418
0, 237, 0, 6.488939762115479
0, 238, 0, 6.110377788543701
0, 239, 0, 6.186156272888184
0, 240, 0, 6.326424121856689
0, 241, 0, 6.027365684509277
0, 242, 0, 6.444212913513184
0, 243, 0, 6.651944637298584
0, 244, 0, 6.480888366699219
0, 245, 0, 6.345302581787109
0, 246, 0, 6.292237281799316
0, 247, 0, 6.325414180755615
0, 248, 0, 6.198335647583008
0, 249, 0, 6.1285400390625
0, 250, 0, 6.441206932067871
0, 251, 0, 6.150200366973877
0, 252, 0, 6.385194778442383
0, 253, 0, 6.346127510070801
0, 254, 0, 6.536436557769775
0, 255, 0, 6.425985813140869
0, 256, 0, 6.286080360412598
0, 257, 0, 5.74858283996582
0, 258, 0, 6.166855335235596
0, 259, 0, 6.448541641235352
0, 260, 0, 6.399683475494385
0, 261, 0, 6.488152980804443
0, 262, 0, 6.425892353057861
0, 263, 0, 6.716976165771484
0, 264, 0, 6.425589084625244
0, 265, 0, 6.441336154937744
0, 266, 0, 6.595230102539062
0, 267, 0, 6.226286888122559
0, 268, 0, 6.436315059661865
0, 269, 0, 6.350776672363281
0, 270, 0, 6.488969326019287
0, 271, 0, 6.634108543395996
0, 272, 0, 6.28399133682251
0, 273, 0, 6.565636157989502
0, 274, 0, 6.694778919219971
0, 275, 0, 6.221178531646729
0, 276, 0, 6.580761432647705
0, 277, 0, 6.092512130737305
0, 278, 0, 6.266692638397217
0, 279, 0, 6.046366214752197
0, 280, 0, 6.390521049499512
0, 281, 0, 6.456796646118164
0, 282, 0, 6.503705978393555
0, 283, 0, 6.501731395721436
0, 284, 0, 6.712707042694092
0, 285, 0, 6.449367523193359
0, 286, 0, 6.699063777923584
0, 287, 0, 6.738703727722168
0, 288, 0, 6.704054355621338
0, 289, 0, 6.716474533081055
0, 290, 0, 6.492533206939697
0, 291, 0, 6.402449131011963
0, 292, 0, 6.275851726531982
0, 293, 0, 6.625164985656738
0, 294, 0, 6.287367820739746
0, 295, 0, 6.20662260055542
0, 296, 0, 6.602838516235352
0, 297, 0, 6.445957183837891
0, 298, 0, 6.814492225646973
0, 299, 0, 6.155276298522949
