# TOPAS Version: 3.9
# Parameter File: data/topas/input/plan_1b/main_2GySOBP.txt
# Results for scorer: TQeff
# Scored in component: ScoringYBox
# X in 1 bin  of 2 cm
# Y in 300 bins of 0.0666667 cm
# Z in 1 bin  of 2 cm
# Qeff : Sum   
0, 0, 0, 138.3999481201172
0, 1, 0, 122.7028961181641
0, 2, 0, 137.0138092041016
0, 3, 0, 155.9739685058594
0, 4, 0, 140.1543579101562
0, 5, 0, 128.1229858398438
0, 6, 0, 115.220947265625
0, 7, 0, 134.0408020019531
0, 8, 0, 152.2045593261719
0, 9, 0, 129.1661529541016
0, 10, 0, 127.4397201538086
0, 11, 0, 123.9537963867188
0, 12, 0, 153.238037109375
0, 13, 0, 152.2857055664062
0, 14, 0, 182.4935302734375
0, 15, 0, 139.7605438232422
0, 16, 0, 160.2544860839844
0, 17, 0, 133.591064453125
0, 18, 0, 156.9413452148438
0, 19, 0, 136.0890655517578
0, 20, 0, 134.3901214599609
0, 21, 0, 150.4000854492188
0, 22, 0, 157.8762512207031
0, 23, 0, 144.0314331054688
0, 24, 0, 149.1456604003906
0, 25, 0, 170.1624908447266
0, 26, 0, 158.4808044433594
0, 27, 0, 166.1824188232422
0, 28, 0, 146.4618682861328
0, 29, 0, 168.2835083007812
0, 30, 0, 183.7547149658203
0, 31, 0, 144.4910430908203
0, 32, 0, 126.8292007446289
0, 33, 0, 137.1056365966797
0, 34, 0, 151.7211151123047
0, 35, 0, 135.1153869628906
0, 36, 0, 156.683349609375
0, 37, 0, 168.95263671875
0, 38, 0, 143.7109069824219
0, 39, 0, 195.1435241699219
0, 40, 0, 175.4194030761719
0, 41, 0, 165.7071533203125
0, 42, 0, 160.1239471435547
0, 43, 0, 175.681884765625
0, 44, 0, 179.0373992919922
0, 45, 0, 160.0038909912109
0, 46, 0, 159.1827392578125
0, 47, 0, 150.4626922607422
0, 48, 0, 160.3569183349609
0, 49, 0, 166.3187408447266
0, 50, 0, 168.2175445556641
0, 51, 0, 148.4180603027344
0, 52, 0, 144.4797058105469
0, 53, 0, 156.5200653076172
0, 54, 0, 164.4633636474609
0, 55, 0, 168.3612670898438
0, 56, 0, 170.2957458496094
0, 57, 0, 153.3241577148438
0, 58, 0, 145.179931640625
0, 59, 0, 126.2853851318359
0, 60, 0, 114.8337478637695
0, 61, 0, 110.5622634887695
0, 62, 0, 104.2601470947266
0, 63, 0, 97.45151519775391
0, 64, 0, 91.52384948730469
0, 65, 0, 85.59803009033203
0, 66, 0, 78.86353302001953
0, 67, 0, 73.33843994140625
0, 68, 0, 67.91706848144531
0, 69, 0, 62.66633605957031
0, 70, 0, 57.42923736572266
0, 71, 0, 52.64443969726562
0, 72, 0, 48.02775573730469
0, 73, 0, 43.59890365600586
0, 74, 0, 39.89225006103516
0, 75, 0, 36.74850845336914
0, 76, 0, 33.96226119995117
0, 77, 0, 31.75481224060059
0, 78, 0, 29.88224220275879
0, 79, 0, 28.35266494750977
0, 80, 0, 26.94600868225098
0, 81, 0, 25.82267951965332
0, 82, 0, 24.69221878051758
0, 83, 0, 23.78470039367676
0, 84, 0, 23.0416259765625
0, 85, 0, 22.45230484008789
0, 86, 0, 21.91138648986816
0, 87, 0, 21.36740493774414
0, 88, 0, 20.89086151123047
0, 89, 0, 20.34666633605957
0, 90, 0, 19.89081573486328
0, 91, 0, 19.36163902282715
0, 92, 0, 18.90444183349609
0, 93, 0, 18.53069686889648
0, 94, 0, 18.2499828338623
0, 95, 0, 17.93657684326172
0, 96, 0, 17.59758186340332
0, 97, 0, 17.2786808013916
0, 98, 0, 16.92416763305664
0, 99, 0, 16.60046195983887
0, 100, 0, 16.24666976928711
0, 101, 0, 16.01139450073242
0, 102, 0, 15.7910737991333
0, 103, 0, 15.54057693481445
0, 104, 0, 15.38119602203369
0, 105, 0, 15.19939517974854
0, 106, 0, 14.89844417572021
0, 107, 0, 14.68189334869385
0, 108, 0, 14.43287563323975
0, 109, 0, 14.2498140335083
0, 110, 0, 14.13309478759766
0, 111, 0, 13.95744895935059
0, 112, 0, 13.8287239074707
0, 113, 0, 13.61032295227051
0, 114, 0, 13.46738433837891
0, 115, 0, 13.31106758117676
0, 116, 0, 13.11424827575684
0, 117, 0, 12.96317863464355
0, 118, 0, 12.83400249481201
0, 119, 0, 12.72193908691406
0, 120, 0, 12.61327362060547
0, 121, 0, 12.50872993469238
0, 122, 0, 12.34792137145996
0, 123, 0, 12.21480941772461
0, 124, 0, 12.06793594360352
0, 125, 0, 11.89109706878662
0, 126, 0, 11.82162284851074
0, 127, 0, 11.72181415557861
0, 128, 0, 11.62392616271973
0, 129, 0, 11.53229141235352
0, 130, 0, 11.39950275421143
0, 131, 0, 11.31406402587891
0, 132, 0, 11.18492889404297
0, 133, 0, 11.08487606048584
0, 134, 0, 11.00156688690186
0, 135, 0, 10.94752979278564
0, 136, 0, 10.879958152771
0, 137, 0, 10.80833339691162
0, 138, 0, 10.6766357421875
0, 139, 0, 10.58802223205566
0, 140, 0, 10.49145698547363
0, 141, 0, 10.39347362518311
0, 142, 0, 10.33526802062988
0, 143, 0, 10.27560424804688
0, 144, 0, 10.21441268920898
0, 145, 0, 10.1316442489624
0, 146, 0, 10.03744983673096
0, 147, 0, 9.978468894958496
0, 148, 0, 9.902273178100586
0, 149, 0, 9.850606918334961
0, 150, 0, 9.807384490966797
0, 151, 0, 9.757845878601074
0, 152, 0, 9.696120262145996
0, 153, 0, 9.626521110534668
0, 154, 0, 9.536608695983887
0, 155, 0, 9.469818115234375
0, 156, 0, 9.428584098815918
0, 157, 0, 9.375666618347168
0, 158, 0, 9.331025123596191
0, 159, 0, 9.270960807800293
0, 160, 0, 9.208820343017578
0, 161, 0, 9.158068656921387
0, 162, 0, 9.081089973449707
0, 163, 0, 9.049561500549316
0, 164, 0, 9.003472328186035
0, 165, 0, 8.995227813720703
0, 166, 0, 8.958901405334473
0, 167, 0, 8.893095016479492
0, 168, 0, 8.837272644042969
0, 169, 0, 8.772876739501953
0, 170, 0, 8.728222846984863
0, 171, 0, 8.710472106933594
0, 172, 0, 8.658225059509277
0, 173, 0, 8.65636157989502
0, 174, 0, 8.593571662902832
0, 175, 0, 8.511683464050293
0, 176, 0, 8.48677921295166
0, 177, 0, 8.437617301940918
0, 178, 0, 8.420367240905762
0, 179, 0, 8.408764839172363
0, 180, 0, 8.359199523925781
0, 181, 0, 8.320184707641602
0, 182, 0, 8.234906196594238
0, 183, 0, 8.212211608886719
0, 184, 0, 8.169674873352051
0, 185, 0, 8.15898609161377
0, 186, 0, 8.143155097961426
0, 187, 0, 8.128470420837402
0, 188, 0, 8.056875228881836
0, 189, 0, 8.02432918548584
0, 190, 0, 7.978306293487549
0, 191, 0, 7.954731464385986
0, 192, 0, 7.934140205383301
0, 193, 0, 7.909282684326172
0, 194, 0, 7.885269165039062
0, 195, 0, 7.830851078033447
0, 196, 0, 7.810960292816162
0, 197, 0, 7.78030252456665
0, 198, 0, 7.762694358825684
0, 199, 0, 7.746786117553711
0, 200, 0, 7.695793151855469
0, 201, 0, 7.660932540893555
0, 202, 0, 7.616782665252686
0, 203, 0, 7.585750579833984
0, 204, 0, 7.584183692932129
0, 205, 0, 7.571241855621338
0, 206, 0, 7.555716991424561
0, 207, 0, 7.491076946258545
0, 208, 0, 7.436599731445312
0, 209, 0, 7.424007415771484
0, 210, 0, 7.428322792053223
0, 211, 0, 7.441173553466797
0, 212, 0, 7.409682273864746
0, 213, 0, 7.344253540039062
0, 214, 0, 7.290641784667969
0, 215, 0, 7.274900913238525
0, 216, 0, 7.272020816802979
0, 217, 0, 7.282171249389648
0, 218, 0, 7.254185199737549
0, 219, 0, 7.141202449798584
0, 220, 0, 7.016890525817871
0, 221, 0, 6.922362327575684
0, 222, 0, 6.824888229370117
0, 223, 0, 6.732831001281738
0, 224, 0, 6.680379867553711
0, 225, 0, 6.599016189575195
0, 226, 0, 6.520427227020264
0, 227, 0, 6.485297203063965
0, 228, 0, 6.450594902038574
0, 229, 0, 6.397279262542725
0, 230, 0, 6.352430820465088
0, 231, 0, 6.293823719024658
0, 232, 0, 6.281303882598877
0, 233, 0, 6.250009536743164
0, 234, 0, 6.211799144744873
0, 235, 0, 6.150151252746582
0, 236, 0, 6.128266334533691
0, 237, 0, 6.109189510345459
0, 238, 0, 6.072249889373779
0, 239, 0, 6.02890682220459
0, 240, 0, 6.01519250869751
0, 241, 0, 5.972164154052734
0, 242, 0, 5.961065769195557
0, 243, 0, 5.931740760803223
0, 244, 0, 5.895864963531494
0, 245, 0, 5.872771263122559
0, 246, 0, 5.831222057342529
0, 247, 0, 5.827021598815918
0, 248, 0, 5.786701202392578
0, 249, 0, 5.74426794052124
0, 250, 0, 5.734979629516602
0, 251, 0, 5.705779552459717
0, 252, 0, 5.68760871887207
0, 253, 0, 5.664862632751465
0, 254, 0, 5.651443481445312
0, 255, 0, 5.614457607269287
0, 256, 0, 5.58101224899292
0, 257, 0, 5.546172618865967
0, 258, 0, 5.538005352020264
0, 259, 0, 5.518234252929688
0, 260, 0, 5.517507076263428
0, 261, 0, 5.486662864685059
0, 262, 0, 5.449562549591064
0, 263, 0, 5.420692443847656
0, 264, 0, 5.416074752807617
0, 265, 0, 5.392644882202148
0, 266, 0, 5.377349376678467
0, 267, 0, 5.341631889343262
0, 268, 0, 5.343119144439697
0, 269, 0, 5.314555644989014
0, 270, 0, 5.292699813842773
0, 271, 0, 5.277352809906006
0, 272, 0, 5.250455856323242
0, 273, 0, 5.232244491577148
0, 274, 0, 5.214988708496094
0, 275, 0, 5.185704708099365
0, 276, 0, 5.173587322235107
0, 277, 0, 5.137533187866211
0, 278, 0, 5.119982242584229
0, 279, 0, 5.10634708404541
0, 280, 0, 5.08910608291626
0, 281, 0, 5.080974102020264
0, 282, 0, 5.063789367675781
0, 283, 0, 5.04733419418335
0, 284, 0, 5.020956993103027
0, 285, 0, 4.998786926269531
0, 286, 0, 4.9878249168396
0, 287, 0, 4.967426776885986
0, 288, 0, 4.941529750823975
0, 289, 0, 4.925898551940918
0, 290, 0, 4.893384456634521
0, 291, 0, 4.879157543182373
0, 292, 0, 4.850526809692383
0, 293, 0, 4.839972019195557
0, 294, 0, 4.79987621307373
0, 295, 0, 4.774849414825439
0, 296, 0, 4.748292922973633
0, 297, 0, 4.713305473327637
0, 298, 0, 4.689431190490723
0, 299, 0, 4.618654251098633
