# TOPAS Version: 3.7
# Parameter File: data/topas/input/plan_1a/main_2GySOBP.txt
# Results for scorer Scoring_protonD_ZBox
# Scored in component: ScoringYBox
# X in 1 bin  of 2 cm
# Y in 300 bins of 0.0666667 cm
# Z in 1 bin  of 2 cm
# DoseToWater ( Gy ) : Sum   
0, 0, 0, 2.710339970235509e-07
0, 1, 0, 2.475292433246068e-07
0, 2, 0, 2.988851974805584e-07
0, 3, 0, 2.616779113395751e-07
0, 4, 0, 2.791015560887899e-07
0, 5, 0, 2.477012515100796e-07
0, 6, 0, 2.879041289816087e-07
0, 7, 0, 2.623208388286002e-07
0, 8, 0, 2.941413868029485e-07
0, 9, 0, 2.731640336151031e-07
0, 10, 0, 3.347784343077365e-07
0, 11, 0, 3.461317135133868e-07
0, 12, 0, 3.104707957390929e-07
0, 13, 0, 2.76569579682473e-07
0, 14, 0, 3.392157736925583e-07
0, 15, 0, 2.963919314424857e-07
0, 16, 0, 3.476712322481035e-07
0, 17, 0, 3.334850475766871e-07
0, 18, 0, 2.909138743234507e-07
0, 19, 0, 3.276036011357064e-07
0, 20, 0, 2.904465361552866e-07
0, 21, 0, 3.388442735285935e-07
0, 22, 0, 3.611197314512538e-07
0, 23, 0, 3.960594199270417e-07
0, 24, 0, 3.631619165389566e-07
0, 25, 0, 3.445645120336849e-07
0, 26, 0, 3.119419886843389e-07
0, 27, 0, 2.864641146516078e-07
0, 28, 0, 3.473371350537491e-07
0, 29, 0, 3.969504120959755e-07
0, 30, 0, 3.999688544809032e-07
0, 31, 0, 3.968480370986072e-07
0, 32, 0, 3.600974878281704e-07
0, 33, 0, 4.619106448444654e-07
0, 34, 0, 4.128073669562582e-07
0, 35, 0, 3.953245482080092e-07
0, 36, 0, 4.121052086247801e-07
0, 37, 0, 4.706292031642079e-07
0, 38, 0, 4.482552924400807e-07
0, 39, 0, 4.80982237149874e-07
0, 40, 0, 4.247108336130623e-07
0, 41, 0, 4.033406924008887e-07
0, 42, 0, 4.314514399084146e-07
0, 43, 0, 4.883282826995128e-07
0, 44, 0, 4.249657479249436e-07
0, 45, 0, 4.260550099388638e-07
0, 46, 0, 4.421496271334036e-07
0, 47, 0, 4.285714396701223e-07
0, 48, 0, 5.137649736752792e-07
0, 49, 0, 4.4990196101935e-07
0, 50, 0, 4.85987357023987e-07
0, 51, 0, 4.885814632871188e-07
0, 52, 0, 5.76434047161456e-07
0, 53, 0, 5.738468189520063e-07
0, 54, 0, 4.933588115818566e-07
0, 55, 0, 5.482100391418498e-07
0, 56, 0, 6.431077395063767e-07
0, 57, 0, 8.31602562811895e-07
0, 58, 0, 1.421790784661425e-06
0, 59, 0, 2.349575197513332e-06
0, 60, 0, 4.299133706808789e-06
0, 61, 0, 8.066392183536664e-06
0, 62, 0, 1.50601590576116e-05
0, 63, 0, 2.617499558255076e-05
0, 64, 0, 4.493030792218633e-05
0, 65, 0, 7.145964627852663e-05
0, 66, 0, 0.0001075249456334859
0, 67, 0, 0.0001536472700536251
0, 68, 0, 0.0002072352508548647
0, 69, 0, 0.0002656288561411202
0, 70, 0, 0.0003235603217035532
0, 71, 0, 0.0003778482787311077
0, 72, 0, 0.0004220221017021686
0, 73, 0, 0.0004560045781545341
0, 74, 0, 0.0004782012838404626
0, 75, 0, 0.0004901514039374888
0, 76, 0, 0.0004949138383381069
0, 77, 0, 0.0004966153064742684
0, 78, 0, 0.0004970825975760818
0, 79, 0, 0.000496218737680465
0, 80, 0, 0.0004946072003804147
0, 81, 0, 0.0004922690568491817
0, 82, 0, 0.0004890435375273228
0, 83, 0, 0.0004865967202931643
0, 84, 0, 0.0004846954252570868
0, 85, 0, 0.0004844481300096959
0, 86, 0, 0.0004857418534811586
0, 87, 0, 0.0004875247250311077
0, 88, 0, 0.0004897132748737931
0, 89, 0, 0.0004915704485028982
0, 90, 0, 0.0004931568983010948
0, 91, 0, 0.0004916011821478605
0, 92, 0, 0.0004914773162454367
0, 93, 0, 0.0004912161966785789
0, 94, 0, 0.000491707120090723
0, 95, 0, 0.0004933102172799408
0, 96, 0, 0.0004948365385644138
0, 97, 0, 0.0004954558680765331
0, 98, 0, 0.0004961008089594543
0, 99, 0, 0.0004959289799444377
0, 100, 0, 0.0004943727981299162
0, 101, 0, 0.0004930772702209651
0, 102, 0, 0.0004915284225717187
0, 103, 0, 0.0004929445567540824
0, 104, 0, 0.0004936914774589241
0, 105, 0, 0.0004949828144162893
0, 106, 0, 0.0004954270552843809
0, 107, 0, 0.0004950763541273773
0, 108, 0, 0.0004947682609781623
0, 109, 0, 0.0004940481157973409
0, 110, 0, 0.0004923791857436299
0, 111, 0, 0.0004929215647280216
0, 112, 0, 0.0004934059106744826
0, 113, 0, 0.0004943822277709842
0, 114, 0, 0.0004945248365402222
0, 115, 0, 0.000494154286570847
0, 116, 0, 0.0004931536386720836
0, 117, 0, 0.0004923767992295325
0, 118, 0, 0.0004915996105410159
0, 119, 0, 0.0004920697538182139
0, 120, 0, 0.0004923138185404241
0, 121, 0, 0.0004924951936118305
0, 122, 0, 0.0004923499072901905
0, 123, 0, 0.0004926066030748188
0, 124, 0, 0.0004919252824038267
0, 125, 0, 0.0004905526875518262
0, 126, 0, 0.0004889755509793758
0, 127, 0, 0.0004892358556389809
0, 128, 0, 0.0004897808539681137
0, 129, 0, 0.0004901079228147864
0, 130, 0, 0.0004902727087028325
0, 131, 0, 0.0004893403965979815
0, 132, 0, 0.0004895468591712415
0, 133, 0, 0.0004884605878032744
0, 134, 0, 0.0004870767588727176
0, 135, 0, 0.0004871845594607294
0, 136, 0, 0.0004863938665948808
0, 137, 0, 0.0004874405567534268
0, 138, 0, 0.0004865930823143572
0, 139, 0, 0.0004860557673964649
0, 140, 0, 0.0004848855023737997
0, 141, 0, 0.0004841094778385013
0, 142, 0, 0.000483781797811389
0, 143, 0, 0.0004841119516640902
0, 144, 0, 0.0004836956795770675
0, 145, 0, 0.0004846531082876027
0, 146, 0, 0.0004833753628190607
0, 147, 0, 0.0004827858356293291
0, 148, 0, 0.0004824212519451976
0, 149, 0, 0.0004828850796911865
0, 150, 0, 0.000482995790662244
0, 151, 0, 0.0004834982973989099
0, 152, 0, 0.0004829323734156787
0, 153, 0, 0.0004823084746021777
0, 154, 0, 0.0004820275935344398
0, 155, 0, 0.0004808500234503299
0, 156, 0, 0.0004811065446119756
0, 157, 0, 0.0004809750826098025
0, 158, 0, 0.0004815146385226399
0, 159, 0, 0.0004810395184904337
0, 160, 0, 0.0004812902770936489
0, 161, 0, 0.000480643764603883
0, 162, 0, 0.0004806944052688777
0, 163, 0, 0.0004797762085217983
0, 164, 0, 0.0004795439308509231
0, 165, 0, 0.0004804950149264187
0, 166, 0, 0.000481213181046769
0, 167, 0, 0.0004806699580512941
0, 168, 0, 0.0004800889582838863
0, 169, 0, 0.0004795451823156327
0, 170, 0, 0.0004794385167770088
0, 171, 0, 0.0004792374966200441
0, 172, 0, 0.0004794219566974789
0, 173, 0, 0.0004803651536349207
0, 174, 0, 0.0004800315655302256
0, 175, 0, 0.0004798203590326011
0, 176, 0, 0.000480475282529369
0, 177, 0, 0.0004802683251909912
0, 178, 0, 0.0004801946633961052
0, 179, 0, 0.0004815364954993129
0, 180, 0, 0.0004814919957425445
0, 181, 0, 0.0004816662694793195
0, 182, 0, 0.0004813937412109226
0, 183, 0, 0.0004807102959603071
0, 184, 0, 0.0004809642559848726
0, 185, 0, 0.0004816276195924729
0, 186, 0, 0.0004823199997190386
0, 187, 0, 0.0004817803855985403
0, 188, 0, 0.0004814297135453671
0, 189, 0, 0.0004808573867194355
0, 190, 0, 0.0004814116982743144
0, 191, 0, 0.0004815816064365208
0, 192, 0, 0.0004824119678232819
0, 193, 0, 0.0004831806872971356
0, 194, 0, 0.0004837242013309151
0, 195, 0, 0.0004821778857149184
0, 196, 0, 0.0004819971218239516
0, 197, 0, 0.0004820018948521465
0, 198, 0, 0.0004830397956538945
0, 199, 0, 0.0004837263841181993
0, 200, 0, 0.0004842744674533606
0, 201, 0, 0.0004838799359276891
0, 202, 0, 0.0004827194497920573
0, 203, 0, 0.0004831838014069945
0, 204, 0, 0.0004840475448872894
0, 205, 0, 0.0004851327976211905
0, 206, 0, 0.0004861027409788221
0, 207, 0, 0.0004853274731431156
0, 208, 0, 0.0004847119271289557
0, 209, 0, 0.0004842596244998276
0, 210, 0, 0.0004854060534853488
0, 211, 0, 0.0004866279487032443
0, 212, 0, 0.0004872507706750184
0, 213, 0, 0.0004862727946601808
0, 214, 0, 0.0004853118443861604
0, 215, 0, 0.0004851022968068719
0, 216, 0, 0.0004864330403506756
0, 217, 0, 0.0004885334637947381
0, 218, 0, 0.000489255296997726
0, 219, 0, 0.0004858756437897682
0, 220, 0, 0.000481447932543233
0, 221, 0, 0.0004772396059706807
0, 222, 0, 0.000472387095214799
0, 223, 0, 0.0004694737144745886
0, 224, 0, 0.000466302881250158
0, 225, 0, 0.0004631275660358369
0, 226, 0, 0.0004597461957018822
0, 227, 0, 0.0004581504035741091
0, 228, 0, 0.0004559465742204338
0, 229, 0, 0.0004538217617664486
0, 230, 0, 0.0004518810601439327
0, 231, 0, 0.0004495417815633118
0, 232, 0, 0.0004477757320273668
0, 233, 0, 0.0004467561957426369
0, 234, 0, 0.0004453361325431615
0, 235, 0, 0.0004436133604031056
0, 236, 0, 0.0004424890503287315
0, 237, 0, 0.0004412444832269102
0, 238, 0, 0.0004391088732518256
0, 239, 0, 0.0004369475936982781
0, 240, 0, 0.0004369731177575886
0, 241, 0, 0.0004359945887699723
0, 242, 0, 0.0004344646004028618
0, 243, 0, 0.00043346150778234
0, 244, 0, 0.0004315912956371903
0, 245, 0, 0.0004304864851292223
0, 246, 0, 0.0004295253893360496
0, 247, 0, 0.0004282069858163595
0, 248, 0, 0.0004276794206816703
0, 249, 0, 0.0004254132218193263
0, 250, 0, 0.000424336496507749
0, 251, 0, 0.0004227911122143269
0, 252, 0, 0.0004225319717079401
0, 253, 0, 0.0004210170300211757
0, 254, 0, 0.0004203545395284891
0, 255, 0, 0.0004192623600829393
0, 256, 0, 0.0004178569361101836
0, 257, 0, 0.000416574563132599
0, 258, 0, 0.0004159992968197912
0, 259, 0, 0.0004151771136093885
0, 260, 0, 0.0004137733776587993
0, 261, 0, 0.0004133344918955117
0, 262, 0, 0.0004117586940992624
0, 263, 0, 0.0004107165441382676
0, 264, 0, 0.0004098150238860399
0, 265, 0, 0.0004091156588401645
0, 266, 0, 0.0004077301418874413
0, 267, 0, 0.0004073795862495899
0, 268, 0, 0.0004061172076035291
0, 269, 0, 0.0004051333817187697
0, 270, 0, 0.0004045901878271252
0, 271, 0, 0.0004039441118948162
0, 272, 0, 0.0004028160765301436
0, 273, 0, 0.0004018733743578196
0, 274, 0, 0.0004007094830740243
0, 275, 0, 0.0004003592184744775
0, 276, 0, 0.0003992117999587208
0, 277, 0, 0.0003978683962486684
0, 278, 0, 0.0003969132376369089
0, 279, 0, 0.0003957161097787321
0, 280, 0, 0.0003946811484638602
0, 281, 0, 0.0003940530295949429
0, 282, 0, 0.0003929434169549495
0, 283, 0, 0.0003926997596863657
0, 284, 0, 0.0003916634013876319
0, 285, 0, 0.0003904912737198174
0, 286, 0, 0.0003891132946591824
0, 287, 0, 0.0003889290674123913
0, 288, 0, 0.0003880067088175565
0, 289, 0, 0.0003863136225845665
0, 290, 0, 0.0003854890528600663
0, 291, 0, 0.0003847941115964204
0, 292, 0, 0.0003829090564977378
0, 293, 0, 0.0003818938857875764
0, 294, 0, 0.000380204786779359
0, 295, 0, 0.0003784936561714858
0, 296, 0, 0.0003776794474106282
0, 297, 0, 0.0003757367376238108
0, 298, 0, 0.0003736130311153829
0, 299, 0, 0.0003689900622703135
