# TOPAS Version: 3.7
# Parameter File: data/topas/input/plan_1a/main_2GySOBP.txt
# Results for scorer Scoring_protonD_XYBox
# Scored in component: ScoringXYBox
# X in 300 bins of 0.0666667 cm
# Y in 300 bins of 0.0666667 cm
# Z in 1 bin  of 2 cm
# DoseToWater ( Gy ) : Sum   
0, 0, 0, 6.148805198336049e-08
0, 1, 0, 2.7679719849516e-08
0, 2, 0, 1.279840091683582e-07
0, 3, 0, 3.440789271280664e-07
0, 4, 0, 8.116560223925262e-08
0, 5, 0, 7.125580481215366e-08
0, 6, 0, 3.318146752917528e-07
0, 7, 0, 6.13482171729629e-08
0, 8, 0, 5.442520389919991e-08
0, 9, 0, 2.60121684192427e-08
0, 10, 0, 5.485856036102632e-08
0, 11, 0, 4.141626774867291e-08
0, 12, 0, 4.081777760234218e-08
0, 13, 0, 7.055571416003659e-08
0, 14, 0, 8.270375673191666e-08
0, 15, 0, 8.063949508141377e-08
0, 16, 0, 2.304210688919284e-08
0, 17, 0, 3.596511177761386e-08
0, 18, 0, 7.128328860517286e-08
0, 19, 0, 1.02176016980593e-07
0, 20, 0, 6.541233688039938e-08
0, 21, 0, 1.857988074505101e-08
0, 22, 0, 3.660015934769945e-08
0, 23, 0, 7.363714615848949e-08
0, 24, 0, 2.425470881917136e-07
0, 25, 0, 1.030976193305833e-07
0, 26, 0, 2.35363700085145e-07
0, 27, 0, 4.331990410832987e-08
0, 28, 0, 5.3964566149034e-08
0, 29, 0, 2.545722210811618e-08
0, 30, 0, 1.694264994966943e-07
0, 31, 0, 1.453450266808431e-07
0, 32, 0, 3.091163023327681e-07
0, 33, 0, 1.339580961712272e-07
0, 34, 0, 8.879655410964915e-08
0, 35, 0, 7.365456866637032e-08
0, 36, 0, 2.624902606385149e-08
0, 37, 0, 6.693883847219695e-08
0, 38, 0, 2.448909697250201e-07
0, 39, 0, 1.765007340281954e-07
0, 40, 0, 2.673406243047793e-07
0, 41, 0, 2.221559469717249e-07
0, 42, 0, 1.475537061423893e-07
0, 43, 0, 1.32716195366811e-07
0, 44, 0, 2.18583593891708e-07
0, 45, 0, 2.048805072263349e-07
0, 46, 0, 2.036334336708023e-07
0, 47, 0, 3.96506294464416e-07
0, 48, 0, 7.405228075185732e-08
0, 49, 0, 9.637248155058842e-08
0, 50, 0, 1.274438403697786e-07
0, 51, 0, 3.710651128585596e-07
0, 52, 0, 1.485741449869238e-07
0, 53, 0, 6.712903655170521e-07
0, 54, 0, 1.60216586664319e-07
0, 55, 0, 2.090435771151533e-07
0, 56, 0, 2.096281122021537e-07
0, 57, 0, 1.737166428483761e-07
0, 58, 0, 1.691606854592465e-07
0, 59, 0, 2.119201951700234e-07
0, 60, 0, 8.549630337029157e-08
0, 61, 0, 1.290456879132762e-07
0, 62, 0, 1.808268592640161e-07
0, 63, 0, 6.557537801654689e-08
0, 64, 0, 1.56961590391802e-07
0, 65, 0, 8.326684763915182e-08
0, 66, 0, 5.015356805415649e-07
0, 67, 0, 2.50939763191127e-07
0, 68, 0, 1.371824254192688e-07
0, 69, 0, 1.572196595134301e-07
0, 70, 0, 6.884277325980293e-08
0, 71, 0, 1.623509717774141e-07
0, 72, 0, 1.077053042308762e-07
0, 73, 0, 8.979507271078546e-08
0, 74, 0, 1.774985349811686e-07
0, 75, 0, 6.626178361557322e-08
0, 76, 0, 1.868043568720168e-07
0, 77, 0, 2.473282734172244e-07
0, 78, 0, 3.359712934525305e-07
0, 79, 0, 1.964214675354015e-07
0, 80, 0, 1.987658748703325e-07
0, 81, 0, 3.468811655693571e-07
0, 82, 0, 6.092246849220828e-07
0, 83, 0, 2.597233788037556e-07
0, 84, 0, 1.796317832258865e-07
0, 85, 0, 8.556501285283957e-08
0, 86, 0, 1.117743906320356e-07
0, 87, 0, 1.667781646119693e-07
0, 88, 0, 2.483335492797778e-07
0, 89, 0, 8.919865734924315e-08
0, 90, 0, 8.528353845349557e-08
0, 91, 0, 1.490906385015478e-07
0, 92, 0, 4.132339199713897e-07
0, 93, 0, 3.164028612445691e-07
0, 94, 0, 3.754777537778864e-07
0, 95, 0, 3.060649476083199e-07
0, 96, 0, 6.170770916469337e-07
0, 97, 0, 1.846008217398776e-07
0, 98, 0, 2.650011765581439e-07
0, 99, 0, 1.934329532105039e-07
0, 100, 0, 1.662172479655055e-07
0, 101, 0, 9.269022882563149e-08
0, 102, 0, 1.852518920486546e-07
0, 103, 0, 1.732024088596518e-07
0, 104, 0, 2.1678017958493e-07
0, 105, 0, 3.638006091932766e-07
0, 106, 0, 2.19349729491114e-07
0, 107, 0, 2.406183341463475e-07
0, 108, 0, 3.038436204860773e-07
0, 109, 0, 3.818627476448455e-07
0, 110, 0, 2.284018876252958e-07
0, 111, 0, 2.049441860663137e-07
0, 112, 0, 3.153025431856804e-07
0, 113, 0, 1.417636923406462e-07
0, 114, 0, 1.334822457010887e-07
0, 115, 0, 1.602072501327712e-07
0, 116, 0, 1.290773639084364e-07
0, 117, 0, 1.747775399962848e-07
0, 118, 0, 3.952193310396979e-07
0, 119, 0, 2.46047562768581e-07
0, 120, 0, 2.397965772615862e-07
0, 121, 0, 3.431492530125979e-07
0, 122, 0, 2.406523833542451e-07
0, 123, 0, 3.775865309307846e-07
0, 124, 0, 2.940694230346708e-07
0, 125, 0, 2.598509070139698e-07
0, 126, 0, 2.193794728100329e-07
0, 127, 0, 3.456908075349929e-07
0, 128, 0, 4.406309699334088e-07
0, 129, 0, 2.409594230812218e-07
0, 130, 0, 2.433829138226429e-07
0, 131, 0, 2.711739739424956e-07
0, 132, 0, 4.233931747421593e-07
0, 133, 0, 3.436612132645678e-07
0, 134, 0, 2.27204424163574e-07
0, 135, 0, 5.392141133597761e-07
0, 136, 0, 5.963472062830988e-07
0, 137, 0, 4.957116743753431e-07
0, 138, 0, 8.534385074199236e-07
0, 139, 0, 4.343731632161507e-07
0, 140, 0, 4.940647500006889e-07
0, 141, 0, 3.740663316875725e-07
0, 142, 0, 2.807531700455002e-07
0, 143, 0, 3.893720474934526e-07
0, 144, 0, 9.057314969140862e-07
0, 145, 0, 4.558641535368224e-07
0, 146, 0, 3.063076121634367e-07
0, 147, 0, 3.544838023117336e-07
0, 148, 0, 3.264567567384802e-07
0, 149, 0, 4.181938777492178e-07
0, 150, 0, 2.011137354429593e-07
0, 151, 0, 1.441079007236112e-07
0, 152, 0, 2.748445240285946e-07
0, 153, 0, 3.580497889288381e-07
0, 154, 0, 2.606179521080776e-07
0, 155, 0, 2.521687463286071e-07
0, 156, 0, 2.473724691753887e-07
0, 157, 0, 4.223209373321879e-07
0, 158, 0, 2.34314143199299e-07
0, 159, 0, 1.958565150061986e-07
0, 160, 0, 4.83455778521602e-07
0, 161, 0, 2.895155830628937e-07
0, 162, 0, 2.738540558766545e-07
0, 163, 0, 4.968463258592237e-07
0, 164, 0, 5.202672355153481e-07
0, 165, 0, 2.580885336556094e-07
0, 166, 0, 3.407461690585478e-07
0, 167, 0, 1.684663573087164e-07
0, 168, 0, 2.765117415037821e-07
0, 169, 0, 2.477680993706599e-07
0, 170, 0, 3.966208055317111e-07
0, 171, 0, 4.671652220622491e-07
0, 172, 0, 6.14923578723392e-07
0, 173, 0, 2.088999480065468e-07
0, 174, 0, 3.191466362295614e-07
0, 175, 0, 6.19902152720897e-07
0, 176, 0, 3.311025977836834e-07
0, 177, 0, 3.520323161865235e-07
0, 178, 0, 2.125054407997595e-07
0, 179, 0, 2.711035733682365e-07
0, 180, 0, 5.184601263863442e-07
0, 181, 0, 6.160091174933768e-07
0, 182, 0, 1.305772912019165e-07
0, 183, 0, 2.823471163537761e-07
0, 184, 0, 3.006360600465996e-07
0, 185, 0, 5.585003464148031e-07
0, 186, 0, 2.164803305504392e-07
0, 187, 0, 3.9006775409689e-07
0, 188, 0, 6.176409783620329e-07
0, 189, 0, 1.961951170414977e-07
0, 190, 0, 2.650250507940655e-07
0, 191, 0, 6.739417131029768e-07
0, 192, 0, 2.768533420294261e-07
0, 193, 0, 3.520237044085661e-07
0, 194, 0, 6.152795322122984e-07
0, 195, 0, 4.16776913425565e-07
0, 196, 0, 3.144420759326749e-07
0, 197, 0, 2.866597128559079e-07
0, 198, 0, 3.17438150432281e-07
0, 199, 0, 2.501657831999182e-07
0, 200, 0, 1.600925543243648e-07
0, 201, 0, 1.948491217262927e-07
0, 202, 0, 1.878364628282725e-07
0, 203, 0, 3.509641430810007e-07
0, 204, 0, 3.740572367405548e-07
0, 205, 0, 2.306009037056356e-07
0, 206, 0, 1.686134396550187e-07
0, 207, 0, 3.770744569919771e-07
0, 208, 0, 1.916294252168882e-07
0, 209, 0, 3.476606877939048e-07
0, 210, 0, 2.084989461081932e-07
0, 211, 0, 4.854437634094211e-07
0, 212, 0, 1.537664644502001e-07
0, 213, 0, 2.083737768998617e-07
0, 214, 0, 2.040104334355419e-07
0, 215, 0, 5.156861107025179e-07
0, 216, 0, 2.551508089254639e-07
0, 217, 0, 2.35270690041034e-07
0, 218, 0, 1.748973375015339e-07
0, 219, 0, 1.360624395374543e-07
0, 220, 0, 2.109508585590447e-07
0, 221, 0, 2.872072570880846e-07
0, 222, 0, 2.111390671188929e-07
0, 223, 0, 2.790696953525185e-07
0, 224, 0, 1.771095412550494e-07
0, 225, 0, 3.910168970833183e-07
0, 226, 0, 3.294811676823883e-07
0, 227, 0, 1.211676305956644e-07
0, 228, 0, 9.1777543786975e-08
0, 229, 0, 8.129634920805984e-08
0, 230, 0, 1.919249399406908e-07
0, 231, 0, 3.703352433603868e-07
0, 232, 0, 1.682010406511836e-07
0, 233, 0, 2.318704730441823e-07
0, 234, 0, 3.427640535846876e-07
0, 235, 0, 4.585099020459893e-07
0, 236, 0, 2.248054897791008e-07
0, 237, 0, 1.644267655365184e-07
0, 238, 0, 3.792067957419931e-07
0, 239, 0, 1.62927150881842e-07
0, 240, 0, 1.95034473904343e-07
0, 241, 0, 2.513453409846989e-07
0, 242, 0, 2.498932758498995e-07
0, 243, 0, 1.082745555436304e-07
0, 244, 0, 3.213053503259289e-07
0, 245, 0, 1.909389908405501e-07
0, 246, 0, 1.939929319405564e-07
0, 247, 0, 1.772185669324244e-07
0, 248, 0, 1.768316195693842e-07
0, 249, 0, 1.714368238481256e-07
0, 250, 0, 1.281975698930182e-07
0, 251, 0, 2.571759125657991e-07
0, 252, 0, 1.006313610218967e-07
0, 253, 0, 3.393756742298137e-08
0, 254, 0, 1.010923185162937e-07
0, 255, 0, 1.85485092174531e-07
0, 256, 0, 1.347583094002403e-07
0, 257, 0, 1.802491311764243e-07
0, 258, 0, 1.271826306492585e-07
0, 259, 0, 2.514779851026105e-07
0, 260, 0, 2.885235801386443e-07
0, 261, 0, 6.468761881706087e-08
0, 262, 0, 8.52979624710315e-08
0, 263, 0, 1.056530152254709e-07
0, 264, 0, 1.052268245871346e-07
0, 265, 0, 1.260869169072976e-07
0, 266, 0, 9.909810216868209e-08
0, 267, 0, 1.868594097231835e-07
0, 268, 0, 1.348405476164771e-07
0, 269, 0, 1.566127423302532e-07
0, 270, 0, 1.426367930434935e-07
0, 271, 0, 1.899741306488067e-07
0, 272, 0, 9.627716934801356e-08
0, 273, 0, 8.882170732249506e-08
0, 274, 0, 1.001018645752083e-07
0, 275, 0, 3.053162345167948e-07
0, 276, 0, 1.465186443283528e-07
0, 277, 0, 1.134851146389337e-07
0, 278, 0, 5.124555713109658e-08
0, 279, 0, 9.156621416650523e-08
0, 280, 0, 9.810879930682859e-08
0, 281, 0, 1.42032007488524e-07
0, 282, 0, 6.6428903267024e-08
0, 283, 0, 1.101829099070528e-07
0, 284, 0, 7.870208662552614e-08
0, 285, 0, 1.16210131295702e-07
0, 286, 0, 1.303152004084041e-07
0, 287, 0, 3.10557112470633e-07
0, 288, 0, 6.29521892392404e-08
0, 289, 0, 1.444789887727893e-07
0, 290, 0, 3.13234416182695e-08
0, 291, 0, 6.619797687790197e-08
0, 292, 0, 1.289844959728725e-07
0, 293, 0, 1.330314773895225e-07
0, 294, 0, 2.509773544545624e-08
0, 295, 0, 3.950576754618851e-08
0, 296, 0, 5.995205043518581e-08
0, 297, 0, 1.231756101560677e-07
0, 298, 0, 8.794721395588567e-08
0, 299, 0, 3.289134156148066e-07
1, 0, 0, 3.961817895969943e-08
1, 1, 0, 1.77346478835716e-07
1, 2, 0, 3.998709985353344e-07
1, 3, 0, 7.978060523328168e-08
1, 4, 0, 2.373856666793017e-08
1, 5, 0, 2.144839506001972e-08
1, 6, 0, 2.512943524379807e-07
1, 7, 0, 9.603432715721283e-08
1, 8, 0, 5.04915718124721e-08
1, 9, 0, 8.065104850629723e-08
1, 10, 0, 8.142151131096398e-08
1, 11, 0, 2.388741506820224e-07
1, 12, 0, 3.774350076923838e-08
1, 13, 0, 1.477612840972142e-07
1, 14, 0, 1.806027825068668e-07
1, 15, 0, 1.016907660300603e-07
1, 16, 0, 6.610412128793541e-08
1, 17, 0, 1.192837544294889e-07
1, 18, 0, 6.580025768698761e-08
1, 19, 0, 8.579384314089111e-08
1, 20, 0, 6.972835819851753e-08
1, 21, 0, 4.678772569377543e-08
1, 22, 0, 2.64558877915988e-07
1, 23, 0, 5.47962088148779e-07
1, 24, 0, 9.20914970947706e-08
1, 25, 0, 1.291210338649762e-07
1, 26, 0, 9.512691434565568e-08
1, 27, 0, 9.609664886056635e-08
1, 28, 0, 1.191701599623229e-07
1, 29, 0, 8.043495114407051e-08
1, 30, 0, 1.126937263506989e-07
1, 31, 0, 3.822409411213812e-08
1, 32, 0, 2.042471578533878e-07
1, 33, 0, 1.439772887579238e-07
1, 34, 0, 7.890769637697304e-08
1, 35, 0, 3.47403279477021e-08
1, 36, 0, 4.974242528987816e-08
1, 37, 0, 9.970558778604754e-08
1, 38, 0, 5.242202405497665e-08
1, 39, 0, 1.139742380473763e-07
1, 40, 0, 1.138724812221881e-07
1, 41, 0, 6.85380072695807e-08
1, 42, 0, 1.326508538568305e-07
1, 43, 0, 8.102039572577269e-08
1, 44, 0, 2.01936117605328e-07
1, 45, 0, 2.220732540081372e-07
1, 46, 0, 2.554506295382453e-07
1, 47, 0, 6.897051463283788e-08
1, 48, 0, 7.142568136941918e-08
1, 49, 0, 2.93933140937952e-07
1, 50, 0, 1.184518652053157e-07
1, 51, 0, 2.179107738697894e-08
1, 52, 0, 2.196889141714564e-07
1, 53, 0, 3.876373568800773e-07
1, 54, 0, 2.111639645363539e-07
1, 55, 0, 1.581938846584308e-07
1, 56, 0, 1.12611687086428e-07
1, 57, 0, 1.52238243344982e-07
1, 58, 0, 3.001553352532937e-07
1, 59, 0, 1.035891727951821e-07
1, 60, 0, 1.055016412010445e-07
1, 61, 0, 1.216307481399781e-07
1, 62, 0, 7.288206660405194e-08
1, 63, 0, 9.595694905328855e-08
1, 64, 0, 1.195076890780911e-07
1, 65, 0, 1.544314329748886e-07
1, 66, 0, 5.998044230182131e-07
1, 67, 0, 1.717618545171717e-07
1, 68, 0, 1.4188874786214e-07
1, 69, 0, 1.73985199580784e-07
1, 70, 0, 1.052383353794539e-07
1, 71, 0, 1.928171258214206e-07
1, 72, 0, 1.124541313402005e-07
1, 73, 0, 9.194704375659057e-08
1, 74, 0, 1.32383277673398e-07
1, 75, 0, 1.817476089627235e-07
1, 76, 0, 7.352637965141184e-08
1, 77, 0, 1.004709915264357e-07
1, 78, 0, 4.746932802390802e-08
1, 79, 0, 6.792669893229686e-08
1, 80, 0, 2.845137601070746e-07
1, 81, 0, 4.917292528716644e-08
1, 82, 0, 1.427865754521918e-07
1, 83, 0, 1.98784860572232e-07
1, 84, 0, 1.900535266941006e-07
1, 85, 0, 2.905296625499432e-08
1, 86, 0, 5.468045216616702e-08
1, 87, 0, 3.682858107367792e-07
1, 88, 0, 3.065177622829651e-07
1, 89, 0, 4.6943503662078e-07
1, 90, 0, 1.992298734876385e-07
1, 91, 0, 6.409675279428484e-08
1, 92, 0, 3.794276892676862e-07
1, 93, 0, 1.36187352950401e-07
1, 94, 0, 3.411965110444726e-07
1, 95, 0, 3.864999769120914e-07
1, 96, 0, 4.31248736276757e-07
1, 97, 0, 3.489663811251376e-07
1, 98, 0, 1.984339803584589e-07
1, 99, 0, 1.854190827543789e-07
1, 100, 0, 1.236450657415844e-07
1, 101, 0, 1.112903404987264e-07
1, 102, 0, 1.095892443458979e-07
1, 103, 0, 3.987654508819105e-07
1, 104, 0, 3.406917983284075e-07
1, 105, 0, 1.851581856726625e-07
1, 106, 0, 2.561926919497637e-07
1, 107, 0, 2.359256683348576e-07
1, 108, 0, 5.004121135243622e-07
1, 109, 0, 1.604568637958437e-07
1, 110, 0, 3.304108702195663e-07
1, 111, 0, 3.548674669673346e-07
1, 112, 0, 2.138940118356913e-07
1, 113, 0, 1.911202645032972e-07
1, 114, 0, 3.311796774596587e-07
1, 115, 0, 4.232316825891758e-07
1, 116, 0, 2.159844001425881e-07
1, 117, 0, 1.913937239805819e-07
1, 118, 0, 1.549086476870798e-07
1, 119, 0, 2.430988956803048e-07
1, 120, 0, 4.13015300182451e-07
1, 121, 0, 1.505896989328903e-07
1, 122, 0, 5.564210141528747e-07
1, 123, 0, 3.444819185460801e-07
1, 124, 0, 2.891900692247873e-07
1, 125, 0, 2.935035467999114e-07
1, 126, 0, 3.404798576411849e-07
1, 127, 0, 3.852125303183129e-07
1, 128, 0, 3.446820926455985e-07
1, 129, 0, 2.75416283557206e-07
1, 130, 0, 2.86331527377115e-07
1, 131, 0, 1.582181141657202e-07
1, 132, 0, 3.857347792290966e-07
1, 133, 0, 4.671641136155813e-07
1, 134, 0, 4.137486371291743e-07
1, 135, 0, 1.922248458186004e-07
1, 136, 0, 2.554670288645866e-07
1, 137, 0, 3.197292528511753e-07
1, 138, 0, 1.835952190276657e-07
1, 139, 0, 3.032461108887219e-07
1, 140, 0, 3.563052359822905e-07
1, 141, 0, 5.461714067678258e-07
1, 142, 0, 1.941200622468386e-07
1, 143, 0, 2.936967860023287e-07
1, 144, 0, 5.824208528792951e-07
1, 145, 0, 5.133595664119639e-07
1, 146, 0, 6.899938966853369e-07
1, 147, 0, 4.870585144090001e-07
1, 148, 0, 3.516242372825218e-07
1, 149, 0, 4.612262216596719e-07
1, 150, 0, 4.13004471511158e-07
1, 151, 0, 2.691357394724037e-07
1, 152, 0, 3.971593969254172e-07
1, 153, 0, 5.801859970233636e-07
1, 154, 0, 4.10241568715719e-07
1, 155, 0, 2.73797496674888e-07
1, 156, 0, 2.045627098823388e-07
1, 157, 0, 1.552690349626573e-07
1, 158, 0, 3.476177994343743e-07
1, 159, 0, 1.984975881441642e-07
1, 160, 0, 1.357014980385429e-07
1, 161, 0, 7.166873956521158e-07
1, 162, 0, 1.967308804751156e-07
1, 163, 0, 2.912656213993614e-07
1, 164, 0, 4.133582365284383e-07
1, 165, 0, 2.157211582698437e-07
1, 166, 0, 2.389734845564817e-07
1, 167, 0, 3.206932035482168e-07
1, 168, 0, 1.658380881508492e-07
1, 169, 0, 2.186653631497393e-07
1, 170, 0, 6.377786689881759e-07
1, 171, 0, 6.091119644224818e-07
1, 172, 0, 2.172000819200548e-07
1, 173, 0, 2.35510498214353e-07
1, 174, 0, 3.217616892925435e-07
1, 175, 0, 1.571057168803236e-07
1, 176, 0, 3.815185607436433e-07
1, 177, 0, 2.354576338348124e-07
1, 178, 0, 2.795285922729818e-07
1, 179, 0, 2.443946982566558e-07
1, 180, 0, 3.31045185930634e-07
1, 181, 0, 3.716826597610634e-07
1, 182, 0, 4.371018178517261e-07
1, 183, 0, 2.365732854059388e-07
1, 184, 0, 3.690610697049124e-07
1, 185, 0, 3.957898968565132e-07
1, 186, 0, 4.490936191814399e-07
1, 187, 0, 3.669872796763229e-07
1, 188, 0, 3.009028546330228e-07
1, 189, 0, 2.081599888015262e-07
1, 190, 0, 2.335705602263261e-07
1, 191, 0, 5.096937911730492e-07
1, 192, 0, 3.495150338039821e-07
1, 193, 0, 1.828900622058427e-07
1, 194, 0, 2.310447939635196e-07
1, 195, 0, 3.469416185453156e-07
1, 196, 0, 3.64878587788553e-07
1, 197, 0, 2.490350823336485e-07
1, 198, 0, 4.18431483240056e-07
1, 199, 0, 2.399272034381283e-07
1, 200, 0, 2.808938859288901e-07
1, 201, 0, 2.423247167371301e-07
1, 202, 0, 2.486367520759813e-07
1, 203, 0, 2.7399349278312e-07
1, 204, 0, 2.286020333031047e-07
1, 205, 0, 3.455737669355585e-07
1, 206, 0, 3.781241844080796e-07
1, 207, 0, 1.809581675615846e-07
1, 208, 0, 4.49844179684078e-07
1, 209, 0, 1.26176360026875e-07
1, 210, 0, 2.39937946844293e-07
1, 211, 0, 3.999051330083603e-07
1, 212, 0, 2.429332539577445e-07
1, 213, 0, 7.406253530461981e-07
1, 214, 0, 2.941460195415857e-07
1, 215, 0, 2.734220458933123e-07
1, 216, 0, 2.034907993220259e-07
1, 217, 0, 2.14890491179176e-07
1, 218, 0, 4.564918185678835e-07
1, 219, 0, 1.551961901213872e-07
1, 220, 0, 1.901155712857872e-07
1, 221, 0, 3.264431143179536e-07
1, 222, 0, 1.935229505534153e-07
1, 223, 0, 1.679405272625445e-07
1, 224, 0, 1.149404482703176e-07
1, 225, 0, 2.17365283106119e-07
1, 226, 0, 3.111466355676384e-07
1, 227, 0, 3.488129891593417e-07
1, 228, 0, 5.06603669236938e-07
1, 229, 0, 1.206277602250339e-07
1, 230, 0, 1.493204280222926e-07
1, 231, 0, 9.781478382819841e-08
1, 232, 0, 8.367786108465225e-08
1, 233, 0, 1.302363585864441e-07
1, 234, 0, 2.551067552758468e-07
1, 235, 0, 3.511010504553269e-07
1, 236, 0, 1.976100350020715e-07
1, 237, 0, 1.039831829530158e-07
1, 238, 0, 7.582752914458979e-08
1, 239, 0, 1.749430111885886e-07
1, 240, 0, 5.146607051642604e-08
1, 241, 0, 2.573819131157506e-07
1, 242, 0, 1.920055439086354e-07
1, 243, 0, 3.347292363287124e-07
1, 244, 0, 4.253381007401913e-07
1, 245, 0, 1.336126871365195e-07
1, 246, 0, 2.519134341127938e-07
1, 247, 0, 2.778348857646051e-07
1, 248, 0, 2.918441452948173e-07
1, 249, 0, 2.699116805615631e-07
1, 250, 0, 2.045583471499413e-07
1, 251, 0, 4.634853212337475e-07
1, 252, 0, 1.578518435962906e-07
1, 253, 0, 5.142748449316059e-08
1, 254, 0, 2.293405145792349e-07
1, 255, 0, 4.896051208902463e-08
1, 256, 0, 1.612829549912931e-07
1, 257, 0, 2.399456775492581e-07
1, 258, 0, 3.14974585080563e-07
1, 259, 0, 7.44388017892561e-08
1, 260, 0, 1.018740150016129e-07
1, 261, 0, 1.592798355432024e-07
1, 262, 0, 9.310358706215993e-08
1, 263, 0, 1.282200514651777e-07
1, 264, 0, 1.397066426989113e-07
1, 265, 0, 8.771584703026747e-08
1, 266, 0, 8.72968968224086e-08
1, 267, 0, 1.678747452160678e-07
1, 268, 0, 1.728595435679381e-07
1, 269, 0, 1.724180549445009e-07
1, 270, 0, 1.002166314378883e-07
1, 271, 0, 4.030552958056433e-08
1, 272, 0, 1.247474159526973e-07
1, 273, 0, 6.15338677789623e-08
1, 274, 0, 7.483417618914245e-08
1, 275, 0, 1.377701721594349e-07
1, 276, 0, 2.494690534149413e-07
1, 277, 0, 5.811885728235211e-08
1, 278, 0, 1.269298763872939e-07
1, 279, 0, 7.968685622472549e-08
1, 280, 0, 2.190796379863968e-07
1, 281, 0, 7.824850456472632e-08
1, 282, 0, 6.539526253845906e-08
1, 283, 0, 1.307109585013677e-07
1, 284, 0, 6.87669796661794e-08
1, 285, 0, 5.857810592146961e-08
1, 286, 0, 9.58943147111313e-08
1, 287, 0, 1.183773434831892e-07
1, 288, 0, 2.156455707336136e-07
1, 289, 0, 1.527591706462772e-07
1, 290, 0, 1.054243199405391e-07
1, 291, 0, 1.622154002234311e-07
1, 292, 0, 4.282715337922127e-08
1, 293, 0, 1.137007714646643e-07
1, 294, 0, 1.419807347247115e-07
1, 295, 0, 1.375908595946385e-07
1, 296, 0, 2.359807993457252e-08
1, 297, 0, 3.359486555609692e-08
1, 298, 0, 1.645951641648935e-07
1, 299, 0, 4.175268202288862e-07
2, 0, 0, 2.334681283855389e-07
2, 1, 0, 7.190392636857723e-08
2, 2, 0, 1.082060947510399e-07
2, 3, 0, 1.71941223925387e-07
2, 4, 0, 3.052068819897613e-08
2, 5, 0, 3.635052436834485e-08
2, 6, 0, 6.307156752427545e-08
2, 7, 0, 1.095892514513253e-07
2, 8, 0, 1.33988194761514e-07
2, 9, 0, 8.421052655194217e-08
2, 10, 0, 7.195703233264794e-08
2, 11, 0, 6.54013234679951e-08
2, 12, 0, 2.127864462408979e-07
2, 13, 0, 1.724113047885112e-07
2, 14, 0, 2.072882949732957e-07
2, 15, 0, 1.446148445438666e-07
2, 16, 0, 1.051400104756794e-07
2, 17, 0, 7.895171449945337e-08
2, 18, 0, 2.575503010859848e-08
2, 19, 0, 1.151963004986101e-07
2, 20, 0, 1.95079081777294e-07
2, 21, 0, 1.673498957188713e-07
2, 22, 0, 8.802796713780481e-08
2, 23, 0, 2.472017399668403e-07
2, 24, 0, 1.996352096966802e-07
2, 25, 0, 1.896508905474548e-07
2, 26, 0, 1.585711260077005e-07
2, 27, 0, 4.660027386194088e-08
2, 28, 0, 8.539769424942278e-08
2, 29, 0, 9.912366749631474e-08
2, 30, 0, 1.372277012023915e-07
2, 31, 0, 2.24568012185955e-07
2, 32, 0, 9.810874956883708e-08
2, 33, 0, 2.722268277466355e-07
2, 34, 0, 1.061941574675984e-07
2, 35, 0, 6.133127072871503e-08
2, 36, 0, 2.902325491049851e-07
2, 37, 0, 8.625411140883443e-08
2, 38, 0, 3.920703406379289e-08
2, 39, 0, 1.437611132359962e-07
2, 40, 0, 1.280197352571122e-07
2, 41, 0, 4.074788151342545e-08
2, 42, 0, 6.753251824420659e-08
2, 43, 0, 1.126904862758238e-07
2, 44, 0, 1.092606112251815e-07
2, 45, 0, 1.816018340150549e-07
2, 46, 0, 2.06129300295288e-07
2, 47, 0, 1.862884317915814e-07
2, 48, 0, 1.933546798227326e-07
2, 49, 0, 1.085301022385465e-07
2, 50, 0, 1.111158027811143e-07
2, 51, 0, 6.374254013508107e-08
2, 52, 0, 1.613064171124279e-07
2, 53, 0, 3.459338131506229e-07
2, 54, 0, 1.902392483543736e-07
2, 55, 0, 2.125920843809581e-07
2, 56, 0, 1.924722852209015e-07
2, 57, 0, 2.393781812770612e-07
2, 58, 0, 1.578919608391516e-07
2, 59, 0, 2.276999850892025e-07
2, 60, 0, 1.747611833025076e-07
2, 61, 0, 3.80616171469228e-07
2, 62, 0, 2.101211578064976e-07
2, 63, 0, 1.860821328136808e-07
2, 64, 0, 2.804096652653243e-07
2, 65, 0, 2.0484881702032e-07
2, 66, 0, 1.455657780979891e-07
2, 67, 0, 3.12839546268151e-07
2, 68, 0, 1.008950434311373e-07
2, 69, 0, 4.065300345246214e-07
2, 70, 0, 2.659264453086507e-07
2, 71, 0, 1.085703260628179e-07
2, 72, 0, 1.109388918507648e-07
2, 73, 0, 1.414790489207007e-07
2, 74, 0, 1.351724989717695e-07
2, 75, 0, 1.545847254647015e-07
2, 76, 0, 1.695599110007606e-07
2, 77, 0, 1.586188318469794e-07
2, 78, 0, 1.456118212672664e-07
2, 79, 0, 1.163164284889717e-07
2, 80, 0, 6.303332611423684e-08
2, 81, 0, 4.67841346107889e-07
2, 82, 0, 4.203740289199231e-08
2, 83, 0, 4.042558643391203e-08
2, 84, 0, 2.568671391145472e-07
2, 85, 0, 1.096227819630258e-07
2, 86, 0, 4.248069274126465e-07
2, 87, 0, 2.000420806780312e-07
2, 88, 0, 7.44332382396351e-08
2, 89, 0, 2.051654774959388e-07
2, 90, 0, 3.859394439587049e-07
2, 91, 0, 2.719339704526647e-07
2, 92, 0, 3.788013032135495e-07
2, 93, 0, 2.668291756435792e-07
2, 94, 0, 3.345071490912233e-07
2, 95, 0, 1.028263270086427e-07
2, 96, 0, 3.205682048701419e-07
2, 97, 0, 3.275383448908542e-07
2, 98, 0, 3.887669777213887e-07
2, 99, 0, 1.739067272410466e-07
2, 100, 0, 2.244561585484917e-07
2, 101, 0, 2.180960052555747e-07
2, 102, 0, 5.143367616256e-07
2, 103, 0, 2.098947220474656e-07
2, 104, 0, 1.160324529791978e-07
2, 105, 0, 1.472771060662126e-07
2, 106, 0, 1.122846668977218e-07
2, 107, 0, 2.63805418398988e-07
2, 108, 0, 7.654339242435526e-07
2, 109, 0, 2.725242893575341e-07
2, 110, 0, 2.368593499113558e-07
2, 111, 0, 4.572874843233876e-07
2, 112, 0, 5.168303118807671e-07
2, 113, 0, 3.387043250313582e-07
2, 114, 0, 3.023289423254027e-07
2, 115, 0, 2.738486273301532e-07
2, 116, 0, 2.0256074151348e-07
2, 117, 0, 1.979468038371124e-07
2, 118, 0, 1.512254499402843e-07
2, 119, 0, 1.324047360640179e-07
2, 120, 0, 3.922769735709153e-07
2, 121, 0, 2.716950007197738e-07
2, 122, 0, 1.972951650941468e-07
2, 123, 0, 3.278824749486375e-07
2, 124, 0, 2.269830616796753e-07
2, 125, 0, 4.424321105034323e-07
2, 126, 0, 4.125534758259164e-07
2, 127, 0, 4.161456104156969e-07
2, 128, 0, 3.903699621332635e-07
2, 129, 0, 4.497319991969562e-07
2, 130, 0, 2.603729853944969e-07
2, 131, 0, 2.995305408148852e-07
2, 132, 0, 1.629562973448628e-07
2, 133, 0, 1.90084293194559e-07
2, 134, 0, 3.1736934147375e-07
2, 135, 0, 4.699552675901941e-07
2, 136, 0, 2.761041457688407e-07
2, 137, 0, 2.852064824310219e-07
2, 138, 0, 3.067250133881316e-07
2, 139, 0, 4.190376046153688e-07
2, 140, 0, 2.909510783410951e-07
2, 141, 0, 2.709213333673688e-07
2, 142, 0, 4.485325177938648e-07
2, 143, 0, 2.836301291608834e-07
2, 144, 0, 2.6616848458616e-07
2, 145, 0, 3.1117150456339e-07
2, 146, 0, 4.249237406384054e-07
2, 147, 0, 3.896451232776599e-07
2, 148, 0, 5.493909611686831e-07
2, 149, 0, 4.129500439375988e-07
2, 150, 0, 6.763140163457138e-07
2, 151, 0, 4.033040568174329e-07
2, 152, 0, 6.047898750694003e-07
2, 153, 0, 5.215064220465138e-07
2, 154, 0, 4.372618036541098e-07
2, 155, 0, 3.589964876482554e-07
2, 156, 0, 3.77020967334829e-07
2, 157, 0, 6.859053769403545e-07
2, 158, 0, 3.348527854996064e-07
2, 159, 0, 2.541163155456161e-07
2, 160, 0, 3.434908251165325e-07
2, 161, 0, 1.782718470622058e-07
2, 162, 0, 4.858931674789346e-07
2, 163, 0, 3.941451893751946e-07
2, 164, 0, 4.951017444909667e-07
2, 165, 0, 3.646550226221734e-07
2, 166, 0, 2.033893764519235e-07
2, 167, 0, 2.7593802087722e-07
2, 168, 0, 3.690744847517635e-07
2, 169, 0, 2.35092301181794e-07
2, 170, 0, 3.872951879202446e-07
2, 171, 0, 2.16340680481153e-07
2, 172, 0, 3.742706553566677e-07
2, 173, 0, 4.152483938923979e-07
2, 174, 0, 6.242725021365914e-07
2, 175, 0, 2.424642104870145e-07
2, 176, 0, 3.143877620459534e-07
2, 177, 0, 1.006925913316081e-06
2, 178, 0, 2.106916383581847e-07
2, 179, 0, 2.908502381160361e-07
2, 180, 0, 4.369994712760672e-07
2, 181, 0, 2.550630711084523e-07
2, 182, 0, 2.270338654852821e-07
2, 183, 0, 3.188599464465369e-07
2, 184, 0, 2.751592660388269e-07
2, 185, 0, 3.949769222799659e-07
2, 186, 0, 2.351578132220311e-07
2, 187, 0, 4.397859640903334e-07
2, 188, 0, 4.025690714115626e-07
2, 189, 0, 3.615439254645025e-07
2, 190, 0, 1.904819839637639e-07
2, 191, 0, 4.568755969103222e-07
2, 192, 0, 8.30401518214785e-07
2, 193, 0, 4.387390504234645e-07
2, 194, 0, 3.5501290085449e-07
2, 195, 0, 2.980754914005956e-07
2, 196, 0, 3.413659612760966e-07
2, 197, 0, 2.261240581447055e-07
2, 198, 0, 2.901229549934214e-07
2, 199, 0, 3.624542159741395e-07
2, 200, 0, 2.204214837320251e-07
2, 201, 0, 3.88483442748111e-07
2, 202, 0, 2.155703811013154e-07
2, 203, 0, 2.118827211461394e-07
2, 204, 0, 1.435370222679921e-07
2, 205, 0, 3.695072621212603e-07
2, 206, 0, 1.756411194264729e-07
2, 207, 0, 5.394425670601777e-07
2, 208, 0, 2.102692349126301e-07
2, 209, 0, 3.63164787131609e-07
2, 210, 0, 3.162955408697599e-07
2, 211, 0, 1.943406999771469e-07
2, 212, 0, 1.31272997805354e-07
2, 213, 0, 4.727567386453302e-07
2, 214, 0, 2.758132779945299e-07
2, 215, 0, 2.339122602279531e-07
2, 216, 0, 3.583433283438353e-07
2, 217, 0, 2.872729680802877e-07
2, 218, 0, 2.289806388944271e-07
2, 219, 0, 2.252951532000225e-07
2, 220, 0, 2.914046035584761e-07
2, 221, 0, 2.633888414038665e-07
2, 222, 0, 2.026729220006018e-07
2, 223, 0, 2.739142814789375e-07
2, 224, 0, 1.564267932963048e-07
2, 225, 0, 2.608307170248736e-07
2, 226, 0, 2.118046182886246e-07
2, 227, 0, 2.771395770650997e-07
2, 228, 0, 9.142581802734639e-08
2, 229, 0, 1.884326366052846e-07
2, 230, 0, 1.428986138307664e-07
2, 231, 0, 1.720034106256207e-07
2, 232, 0, 1.711148343019886e-07
2, 233, 0, 1.718471906997365e-07
2, 234, 0, 7.681011737759036e-08
2, 235, 0, 1.925444195194359e-07
2, 236, 0, 2.292003529191788e-07
2, 237, 0, 1.60639075375002e-07
2, 238, 0, 2.29608261292924e-07
2, 239, 0, 2.007832904382667e-07
2, 240, 0, 1.104226683423803e-07
2, 241, 0, 1.843157235725812e-07
2, 242, 0, 1.640481315234865e-07
2, 243, 0, 2.14485268656972e-07
2, 244, 0, 1.282148076597878e-07
2, 245, 0, 1.126960285091627e-07
2, 246, 0, 9.218346264106003e-08
2, 247, 0, 3.058931383748131e-07
2, 248, 0, 1.862988483480876e-07
2, 249, 0, 2.694092984256713e-07
2, 250, 0, 2.848066742444644e-07
2, 251, 0, 3.064705254018918e-07
2, 252, 0, 1.487239558173314e-07
2, 253, 0, 1.385130019571079e-07
2, 254, 0, 3.559462129487656e-07
2, 255, 0, 1.130559752482441e-07
2, 256, 0, 9.64696340588489e-08
2, 257, 0, 1.070150474902221e-07
2, 258, 0, 8.360382253158605e-08
2, 259, 0, 9.511711596132955e-08
2, 260, 0, 1.367041306821193e-07
2, 261, 0, 9.33166433014776e-08
2, 262, 0, 2.086189283545536e-07
2, 263, 0, 1.956747723852459e-07
2, 264, 0, 1.700186231801126e-07
2, 265, 0, 1.524942803143858e-07
2, 266, 0, 2.291490943662211e-07
2, 267, 0, 1.195361960526498e-07
2, 268, 0, 1.165979668371619e-07
2, 269, 0, 1.398658753259951e-07
2, 270, 0, 1.404937393090222e-07
2, 271, 0, 2.170093438280674e-07
2, 272, 0, 2.212536003298737e-07
2, 273, 0, 3.845954665848694e-08
2, 274, 0, 1.881072364540159e-07
2, 275, 0, 7.85275702241961e-08
2, 276, 0, 8.388151684357581e-08
2, 277, 0, 8.346655278046455e-08
2, 278, 0, 1.129106763642085e-07
2, 279, 0, 1.719991757909156e-07
2, 280, 0, 1.212639944014882e-07
2, 281, 0, 7.176927852015069e-08
2, 282, 0, 4.219197791144325e-08
2, 283, 0, 1.141204251098316e-07
2, 284, 0, 5.242343448230713e-08
2, 285, 0, 6.1440573517757e-08
2, 286, 0, 1.383515382258338e-07
2, 287, 0, 1.7314411593361e-07
2, 288, 0, 4.4897323192572e-08
2, 289, 0, 1.045177384639828e-07
2, 290, 0, 1.571249299558986e-07
2, 291, 0, 1.373187785702612e-07
2, 292, 0, 5.499072841530506e-08
2, 293, 0, 1.122145292242749e-07
2, 294, 0, 1.408416778758692e-07
2, 295, 0, 1.595375636043173e-07
2, 296, 0, 5.606634445598502e-08
2, 297, 0, 2.876664595419243e-08
2, 298, 0, 7.957400782743207e-08
2, 299, 0, 3.191975963545701e-07
3, 0, 0, 7.253824918507235e-08
3, 1, 0, 4.390802743614586e-08
3, 2, 0, 1.937388738326717e-08
3, 3, 0, 3.856535499835445e-07
3, 4, 0, 6.752070191851089e-08
3, 5, 0, 3.243361845761683e-07
3, 6, 0, 6.013139852711902e-08
3, 7, 0, 1.462216232539504e-07
3, 8, 0, 2.466543094215012e-07
3, 9, 0, 7.052739903201655e-08
3, 10, 0, 9.310313231480905e-08
3, 11, 0, 2.504010296888737e-07
3, 12, 0, 1.48309027281357e-07
3, 13, 0, 2.480143024286008e-08
3, 14, 0, 2.148158699810665e-07
