# TOPAS Version: 3.9
# Parameter File: data/topas/input/plan_2/main_160MeV.txt
# Results for scorer: Scoring_protonD_ZBox
# Scored in component: ScoringYBox
# X in 1 bin  of 2 cm
# Y in 300 bins of 0.0666667 cm
# Z in 1 bin  of 2 cm
# DoseToWater ( Gy ) : Sum   
0, 0, 0, 1.804284124773403e-06
0, 1, 0, 1.5395283980979e-06
0, 2, 0, 2.282279638166074e-06
0, 3, 0, 1.701365022199752e-06
0, 4, 0, 1.53466885421949e-06
0, 5, 0, 1.387245561090822e-06
0, 6, 0, 1.703245061435155e-06
0, 7, 0, 2.101813379340456e-06
0, 8, 0, 2.115306642735959e-06
0, 9, 0, 2.352564024477033e-06
0, 10, 0, 2.404071665296215e-06
0, 11, 0, 2.357247240070137e-06
0, 12, 0, 2.08893948183686e-06
0, 13, 0, 2.139329353667563e-06
0, 14, 0, 1.851873548730509e-06
0, 15, 0, 2.301424274264718e-06
0, 16, 0, 2.250469151476864e-06
0, 17, 0, 2.17729188989324e-06
0, 18, 0, 2.20944320972194e-06
0, 19, 0, 2.472874484737986e-06
0, 20, 0, 1.860930751718115e-06
0, 21, 0, 2.510223566787317e-06
0, 22, 0, 2.157573817385128e-06
0, 23, 0, 2.501810058674891e-06
0, 24, 0, 2.433200279483572e-06
0, 25, 0, 2.673226163096842e-06
0, 26, 0, 2.99490329780383e-06
0, 27, 0, 4.195190740574617e-06
0, 28, 0, 5.969860012555728e-06
0, 29, 0, 1.039594008034328e-05
0, 30, 0, 1.757267818902619e-05
0, 31, 0, 3.139370164717548e-05
0, 32, 0, 5.447913645184599e-05
0, 33, 0, 8.965550659922883e-05
0, 34, 0, 0.0001465262030251324
0, 35, 0, 0.0002261256886413321
0, 36, 0, 0.0003372420615050942
0, 37, 0, 0.0004762168391607702
0, 38, 0, 0.0006458003772422671
0, 39, 0, 0.0008359199855476618
0, 40, 0, 0.00104013888631016
0, 41, 0, 0.001235947827808559
0, 42, 0, 0.001415870152413845
0, 43, 0, 0.001561894081532955
0, 44, 0, 0.001673405291512609
0, 45, 0, 0.001737157581374049
0, 46, 0, 0.001763303764164448
0, 47, 0, 0.001754314871504903
0, 48, 0, 0.00171563948970288
0, 49, 0, 0.001665451331064105
0, 50, 0, 0.001603335258550942
0, 51, 0, 0.001539769815281034
0, 52, 0, 0.001478109392337501
0, 53, 0, 0.001424216316081583
0, 54, 0, 0.001375904772430658
0, 55, 0, 0.001323971780948341
0, 56, 0, 0.001286937156692147
0, 57, 0, 0.001253078458830714
0, 58, 0, 0.001212699338793755
0, 59, 0, 0.001185573521070182
0, 60, 0, 0.001153451972641051
0, 61, 0, 0.001125845010392368
0, 62, 0, 0.001105141011066735
0, 63, 0, 0.001085658557713032
0, 64, 0, 0.001063785515725613
0, 65, 0, 0.001041038543917239
0, 66, 0, 0.001026627258397639
0, 67, 0, 0.001005694502964616
0, 68, 0, 0.0009940169984474778
0, 69, 0, 0.0009775115177035332
0, 70, 0, 0.0009598133037798107
0, 71, 0, 0.0009455342660658062
0, 72, 0, 0.000934020965360105
0, 73, 0, 0.0009226202964782715
0, 74, 0, 0.0009097743313759565
0, 75, 0, 0.0009022106532938778
0, 76, 0, 0.0008885876159183681
0, 77, 0, 0.0008763177902437747
0, 78, 0, 0.0008701559854671359
0, 79, 0, 0.0008630356751382351
0, 80, 0, 0.0008560733986087143
0, 81, 0, 0.0008450110326521099
0, 82, 0, 0.0008439744124189019
0, 83, 0, 0.0008270438411273062
0, 84, 0, 0.0008232897962443531
0, 85, 0, 0.0008182469173334539
0, 86, 0, 0.0008101477869786322
0, 87, 0, 0.0008054058416746557
0, 88, 0, 0.0008028518641367555
0, 89, 0, 0.0007942419033497572
0, 90, 0, 0.0007859546458348632
0, 91, 0, 0.0007855748990550637
0, 92, 0, 0.0007773873512633145
0, 93, 0, 0.0007756095728836954
0, 94, 0, 0.000770075770560652
0, 95, 0, 0.0007656358066014946
0, 96, 0, 0.0007637132657691836
0, 97, 0, 0.0007581894751638174
0, 98, 0, 0.0007559452205896378
0, 99, 0, 0.0007501077488996089
0, 100, 0, 0.0007462036446668208
0, 101, 0, 0.0007452083518728614
0, 102, 0, 0.0007394233252853155
0, 103, 0, 0.0007372573600150645
0, 104, 0, 0.0007334049441851676
0, 105, 0, 0.0007259895792230964
0, 106, 0, 0.0007255946984514594
0, 107, 0, 0.0007227318128570914
0, 108, 0, 0.0007172279874794185
0, 109, 0, 0.0007191706681624055
0, 110, 0, 0.0007159376982599497
0, 111, 0, 0.0007129363948479295
0, 112, 0, 0.0007092136074788868
0, 113, 0, 0.0007080359500832856
0, 114, 0, 0.0007021526107564569
0, 115, 0, 0.0006980932666920125
0, 116, 0, 0.0006971676484681666
0, 117, 0, 0.000697110197506845
0, 118, 0, 0.0006945106433704495
0, 119, 0, 0.0006931977695785463
0, 120, 0, 0.0006872590165585279
0, 121, 0, 0.0006848084158264101
0, 122, 0, 0.000682197802234441
0, 123, 0, 0.0006816572276875377
0, 124, 0, 0.0006768885068595409
0, 125, 0, 0.0006759138195775449
0, 126, 0, 0.000679858960211277
0, 127, 0, 0.0006765114958398044
0, 128, 0, 0.000671828689519316
0, 129, 0, 0.0006684775580652058
0, 130, 0, 0.0006706209969706833
0, 131, 0, 0.0006677330238744617
0, 132, 0, 0.0006610069540329278
0, 133, 0, 0.0006642345106229186
0, 134, 0, 0.0006607171962969005
0, 135, 0, 0.0006603632355108857
0, 136, 0, 0.0006574701983481646
0, 137, 0, 0.0006553428247570992
0, 138, 0, 0.0006555430009029806
0, 139, 0, 0.000652190821710974
0, 140, 0, 0.0006503286422230303
0, 141, 0, 0.0006539956084452569
0, 142, 0, 0.000650682719424367
0, 143, 0, 0.0006497623980976641
0, 144, 0, 0.0006466016639024019
0, 145, 0, 0.0006494206609204412
0, 146, 0, 0.0006481068558059633
0, 147, 0, 0.0006462910096161067
0, 148, 0, 0.0006426176987588406
0, 149, 0, 0.0006382595165632665
0, 150, 0, 0.000637585180811584
0, 151, 0, 0.0006400154670700431
0, 152, 0, 0.0006391972419805825
0, 153, 0, 0.0006343940040096641
0, 154, 0, 0.0006369837210513651
0, 155, 0, 0.0006364829605445266
0, 156, 0, 0.0006300735403783619
0, 157, 0, 0.0006297528161667287
0, 158, 0, 0.0006291174213401973
0, 159, 0, 0.000627842964604497
0, 160, 0, 0.0006279427907429636
0, 161, 0, 0.0006282615358941257
0, 162, 0, 0.0006255010375753045
0, 163, 0, 0.0006242188392207026
0, 164, 0, 0.0006266330601647496
0, 165, 0, 0.0006226511322893202
0, 166, 0, 0.000623049505520612
0, 167, 0, 0.0006166605744510889
0, 168, 0, 0.0006216933252289891
0, 169, 0, 0.000614252348896116
0, 170, 0, 0.0006168548134155571
0, 171, 0, 0.000619342434220016
0, 172, 0, 0.0006209005950950086
0, 173, 0, 0.0006199033814482391
0, 174, 0, 0.0006156183662824333
0, 175, 0, 0.0006145888473838568
0, 176, 0, 0.0006142339552752674
0, 177, 0, 0.0006150334374979138
0, 178, 0, 0.0006118713063187897
0, 179, 0, 0.0006077662110328674
0, 180, 0, 0.0006121069309301674
0, 181, 0, 0.0006042339955456555
0, 182, 0, 0.0006078363512642682
0, 183, 0, 0.0006068903603591025
0, 184, 0, 0.0006091431714594364
0, 185, 0, 0.0006124283536337316
0, 186, 0, 0.0006098440499044955
0, 187, 0, 0.0006079643499106169
0, 188, 0, 0.0006055714329704642
0, 189, 0, 0.0006069144583307207
0, 190, 0, 0.0006010829820297658
0, 191, 0, 0.0006004069582559168
0, 192, 0, 0.0006004986353218555
0, 193, 0, 0.0006027295021340251
0, 194, 0, 0.0006011523073539138
0, 195, 0, 0.000599619816057384
0, 196, 0, 0.0005985027528367937
0, 197, 0, 0.0005956483073532581
0, 198, 0, 0.0005953289801254869
0, 199, 0, 0.0005987104377709329
0, 200, 0, 0.0006003211601637304
0, 201, 0, 0.0005983669543638825
0, 202, 0, 0.0005930147599428892
0, 203, 0, 0.0005992740043438971
0, 204, 0, 0.0005949502810835838
0, 205, 0, 0.0005927676684223115
0, 206, 0, 0.0005936244269832969
0, 207, 0, 0.0005923734279349446
0, 208, 0, 0.0005940876435488462
0, 209, 0, 0.0005884565180167556
0, 210, 0, 0.0005926231388002634
0, 211, 0, 0.0005897638038732111
0, 212, 0, 0.0005943614523857832
0, 213, 0, 0.0005864826962351799
0, 214, 0, 0.0005863598198629916
0, 215, 0, 0.0005923389689996839
0, 216, 0, 0.0005850126617588103
0, 217, 0, 0.0005866488208994269
0, 218, 0, 0.0005886009312234819
0, 219, 0, 0.0005813189782202244
0, 220, 0, 0.0005877136718481779
0, 221, 0, 0.0005856671486981213
0, 222, 0, 0.0005896760849282146
0, 223, 0, 0.0005851681926287711
0, 224, 0, 0.0005839988007210195
0, 225, 0, 0.0005842092214152217
0, 226, 0, 0.0005809963913634419
0, 227, 0, 0.0005813512834720314
0, 228, 0, 0.0005831526941619813
0, 229, 0, 0.0005809825379401445
0, 230, 0, 0.0005760692874900997
0, 231, 0, 0.0005776935140602291
0, 232, 0, 0.0005768749979324639
0, 233, 0, 0.0005808415589854121
0, 234, 0, 0.0005792290321551263
0, 235, 0, 0.0005725090741179883
0, 236, 0, 0.0005758097395300865
0, 237, 0, 0.0005737951723858714
0, 238, 0, 0.0005767709226347506
0, 239, 0, 0.0005744962254539132
0, 240, 0, 0.0005753638106398284
0, 241, 0, 0.0005731428391300142
0, 242, 0, 0.0005772750591859221
0, 243, 0, 0.000575922429561615
0, 244, 0, 0.0005745848757214844
0, 245, 0, 0.0005716567393392324
0, 246, 0, 0.0005686008371412754
0, 247, 0, 0.0005722221685573459
0, 248, 0, 0.0005715687293559313
0, 249, 0, 0.0005702686030417681
0, 250, 0, 0.0005739026819355786
0, 251, 0, 0.0005693272687494755
0, 252, 0, 0.0005731785786338151
0, 253, 0, 0.0005677127046510577
0, 254, 0, 0.0005676639848388731
0, 255, 0, 0.0005683700437657535
0, 256, 0, 0.0005689547397196293
0, 257, 0, 0.0005625305348075926
0, 258, 0, 0.0005636906716972589
0, 259, 0, 0.0005637910217046738
0, 260, 0, 0.0005617233691737056
0, 261, 0, 0.0005647990037687123
0, 262, 0, 0.0005599752184934914
0, 263, 0, 0.0005583383026532829
0, 264, 0, 0.0005579913849942386
0, 265, 0, 0.0005579436547122896
0, 266, 0, 0.0005589421489275992
0, 267, 0, 0.0005564852617681026
0, 268, 0, 0.0005545492167584598
0, 269, 0, 0.0005574186216108501
0, 270, 0, 0.0005571998190134764
0, 271, 0, 0.0005555707029998302
0, 272, 0, 0.0005532961804419756
0, 273, 0, 0.0005519523401744664
0, 274, 0, 0.0005570746143348515
0, 275, 0, 0.0005522736464627087
0, 276, 0, 0.0005528792389668524
0, 277, 0, 0.0005517062963917851
0, 278, 0, 0.0005523453000932932
0, 279, 0, 0.0005450060707516968
0, 280, 0, 0.0005507906898856163
0, 281, 0, 0.0005460352404043078
0, 282, 0, 0.0005461054970510304
0, 283, 0, 0.0005459733074530959
0, 284, 0, 0.0005478871753439307
0, 285, 0, 0.0005469083553180099
0, 286, 0, 0.0005425102426670492
0, 287, 0, 0.0005412701284512877
0, 288, 0, 0.000542051566299051
0, 289, 0, 0.0005416432395577431
0, 290, 0, 0.0005409846198745072
0, 291, 0, 0.0005376138142310083
0, 292, 0, 0.0005388555582612753
0, 293, 0, 0.0005344507517293096
0, 294, 0, 0.0005353178130462766
0, 295, 0, 0.0005347248516045511
0, 296, 0, 0.0005314769805409014
0, 297, 0, 0.0005266350344754755
0, 298, 0, 0.0005294355796650052
0, 299, 0, 0.0005166424671187997
