# TOPAS Version: 3.9
# Parameter File: data/topas/input/plan_2/main_160MeV.txt
# Results for scorer: Scoring_protonDLET_ZBox
# Scored in component: ScoringYBox
# X in 1 bin  of 2 cm
# Y in 300 bins of 0.0666667 cm
# Z in 1 bin  of 2 cm
# ProtonLET ( MeV/mm/(g/cm3) ) : Sum   
0, 0, 0, 14.46090793609619
0, 1, 0, 13.55618381500244
0, 2, 0, 14.84721183776855
0, 3, 0, 14.66671752929688
0, 4, 0, 14.63984966278076
0, 5, 0, 15.25965213775635
0, 6, 0, 14.28923606872559
0, 7, 0, 15.37180137634277
0, 8, 0, 13.94847393035889
0, 9, 0, 14.54137706756592
0, 10, 0, 15.80382823944092
0, 11, 0, 14.9208927154541
0, 12, 0, 15.1516752243042
0, 13, 0, 15.15559482574463
0, 14, 0, 14.0083475112915
0, 15, 0, 14.43844127655029
0, 16, 0, 14.27033519744873
0, 17, 0, 14.71934032440186
0, 18, 0, 14.8951587677002
0, 19, 0, 14.18270492553711
0, 20, 0, 14.79135704040527
0, 21, 0, 15.38775253295898
0, 22, 0, 14.63123989105225
0, 23, 0, 14.82979583740234
0, 24, 0, 15.08898544311523
0, 25, 0, 15.27669715881348
0, 26, 0, 14.54651832580566
0, 27, 0, 14.47550296783447
0, 28, 0, 14.16651916503906
0, 29, 0, 13.64668273925781
0, 30, 0, 13.31245899200439
0, 31, 0, 12.98817825317383
0, 32, 0, 12.659499168396
0, 33, 0, 12.27426815032959
0, 34, 0, 11.93442630767822
0, 35, 0, 11.54826831817627
0, 36, 0, 11.15423679351807
0, 37, 0, 10.69186592102051
0, 38, 0, 10.26406860351562
0, 39, 0, 9.771430015563965
0, 40, 0, 9.285551071166992
0, 41, 0, 8.746949195861816
0, 42, 0, 8.201737403869629
0, 43, 0, 7.628799915313721
0, 44, 0, 7.080256462097168
0, 45, 0, 6.482035636901855
0, 46, 0, 5.912480354309082
0, 47, 0, 5.353476047515869
0, 48, 0, 4.814364433288574
0, 49, 0, 4.32397985458374
0, 50, 0, 3.895761728286743
0, 51, 0, 3.511497974395752
0, 52, 0, 3.214955806732178
0, 53, 0, 2.969887495040894
0, 54, 0, 2.763812065124512
0, 55, 0, 2.610195159912109
0, 56, 0, 2.487198352813721
0, 57, 0, 2.393651723861694
0, 58, 0, 2.30497932434082
0, 59, 0, 2.235626459121704
0, 60, 0, 2.159456491470337
0, 61, 0, 2.11897611618042
0, 62, 0, 2.07478141784668
0, 63, 0, 2.03147554397583
0, 64, 0, 2.00705623626709
0, 65, 0, 1.970035195350647
0, 66, 0, 1.944271564483643
0, 67, 0, 1.926352262496948
0, 68, 0, 1.897324442863464
0, 69, 0, 1.874885439872742
0, 70, 0, 1.845191359519958
0, 71, 0, 1.835536599159241
0, 72, 0, 1.816807150840759
0, 73, 0, 1.790895938873291
0, 74, 0, 1.775859713554382
0, 75, 0, 1.774577736854553
0, 76, 0, 1.75797975063324
0, 77, 0, 1.731266498565674
0, 78, 0, 1.740361213684082
0, 79, 0, 1.716034650802612
0, 80, 0, 1.708277106285095
0, 81, 0, 1.681913137435913
0, 82, 0, 1.682713508605957
0, 83, 0, 1.664249420166016
0, 84, 0, 1.672950029373169
0, 85, 0, 1.643742561340332
0, 86, 0, 1.633257150650024
0, 87, 0, 1.632888436317444
0, 88, 0, 1.612441062927246
0, 89, 0, 1.60340690612793
0, 90, 0, 1.594790101051331
0, 91, 0, 1.583325505256653
0, 92, 0, 1.589934825897217
0, 93, 0, 1.590643048286438
0, 94, 0, 1.557815074920654
0, 95, 0, 1.546812176704407
0, 96, 0, 1.542605042457581
0, 97, 0, 1.54037344455719
0, 98, 0, 1.532351136207581
0, 99, 0, 1.529297709465027
0, 100, 0, 1.511779427528381
0, 101, 0, 1.507513999938965
0, 102, 0, 1.508780121803284
0, 103, 0, 1.513538718223572
0, 104, 0, 1.508934378623962
0, 105, 0, 1.485642671585083
0, 106, 0, 1.487025380134583
0, 107, 0, 1.486400008201599
0, 108, 0, 1.473767518997192
0, 109, 0, 1.478231430053711
0, 110, 0, 1.467883348464966
0, 111, 0, 1.47437059879303
0, 112, 0, 1.456190586090088
0, 113, 0, 1.45066511631012
0, 114, 0, 1.439212918281555
0, 115, 0, 1.451266288757324
0, 116, 0, 1.422921061515808
0, 117, 0, 1.420837998390198
0, 118, 0, 1.417929530143738
0, 119, 0, 1.425295948982239
0, 120, 0, 1.419451951980591
0, 121, 0, 1.405974626541138
0, 122, 0, 1.409431576728821
0, 123, 0, 1.405952930450439
0, 124, 0, 1.396617293357849
0, 125, 0, 1.392472982406616
0, 126, 0, 1.387027978897095
0, 127, 0, 1.381657600402832
0, 128, 0, 1.378404259681702
0, 129, 0, 1.367159008979797
0, 130, 0, 1.372464776039124
0, 131, 0, 1.356439709663391
0, 132, 0, 1.36205518245697
0, 133, 0, 1.358793258666992
0, 134, 0, 1.355026841163635
0, 135, 0, 1.359153389930725
0, 136, 0, 1.360067844390869
0, 137, 0, 1.340392470359802
0, 138, 0, 1.329938888549805
0, 139, 0, 1.326379656791687
0, 140, 0, 1.334934949874878
0, 141, 0, 1.329476356506348
0, 142, 0, 1.335064053535461
0, 143, 0, 1.333124876022339
0, 144, 0, 1.316444516181946
0, 145, 0, 1.324736833572388
0, 146, 0, 1.316243767738342
0, 147, 0, 1.313116788864136
0, 148, 0, 1.317912459373474
0, 149, 0, 1.305658459663391
0, 150, 0, 1.30479633808136
0, 151, 0, 1.307316303253174
0, 152, 0, 1.30591869354248
0, 153, 0, 1.286218285560608
0, 154, 0, 1.293988823890686
0, 155, 0, 1.290001511573792
0, 156, 0, 1.277906656265259
0, 157, 0, 1.277629971504211
0, 158, 0, 1.269878149032593
0, 159, 0, 1.273338556289673
0, 160, 0, 1.275367021560669
0, 161, 0, 1.267269849777222
0, 162, 0, 1.267560482025146
0, 163, 0, 1.270703315734863
0, 164, 0, 1.262955188751221
0, 165, 0, 1.250245928764343
0, 166, 0, 1.258220791816711
0, 167, 0, 1.237384438514709
0, 168, 0, 1.245846152305603
0, 169, 0, 1.241791725158691
0, 170, 0, 1.250582575798035
0, 171, 0, 1.244361281394958
0, 172, 0, 1.251552104949951
0, 173, 0, 1.248540282249451
0, 174, 0, 1.23533034324646
0, 175, 0, 1.243957757949829
0, 176, 0, 1.232466340065002
0, 177, 0, 1.238514542579651
0, 178, 0, 1.240025043487549
0, 179, 0, 1.217986822128296
0, 180, 0, 1.216894268989563
0, 181, 0, 1.226897954940796
0, 182, 0, 1.219064831733704
0, 183, 0, 1.222140312194824
0, 184, 0, 1.220566034317017
0, 185, 0, 1.2177734375
0, 186, 0, 1.207736849784851
0, 187, 0, 1.214496970176697
0, 188, 0, 1.206793546676636
0, 189, 0, 1.21336817741394
0, 190, 0, 1.198115706443787
0, 191, 0, 1.208799958229065
0, 192, 0, 1.206968784332275
0, 193, 0, 1.211992263793945
0, 194, 0, 1.194833874702454
0, 195, 0, 1.183246612548828
0, 196, 0, 1.183444499969482
0, 197, 0, 1.183526396751404
0, 198, 0, 1.18374240398407
0, 199, 0, 1.18942654132843
0, 200, 0, 1.18426239490509
0, 201, 0, 1.177518963813782
0, 202, 0, 1.179720997810364
0, 203, 0, 1.171818733215332
0, 204, 0, 1.181134462356567
0, 205, 0, 1.172587037086487
0, 206, 0, 1.175310850143433
0, 207, 0, 1.174823045730591
0, 208, 0, 1.1693354845047
0, 209, 0, 1.157663583755493
0, 210, 0, 1.163908362388611
0, 211, 0, 1.1678227186203
0, 212, 0, 1.15892767906189
0, 213, 0, 1.150282025337219
0, 214, 0, 1.159516572952271
0, 215, 0, 1.157433271408081
0, 216, 0, 1.145385265350342
0, 217, 0, 1.156699776649475
0, 218, 0, 1.158179879188538
0, 219, 0, 1.14988899230957
0, 220, 0, 1.147340297698975
0, 221, 0, 1.155447840690613
0, 222, 0, 1.153703570365906
0, 223, 0, 1.143083691596985
0, 224, 0, 1.143943428993225
0, 225, 0, 1.132522463798523
0, 226, 0, 1.131513118743896
0, 227, 0, 1.140607357025146
0, 228, 0, 1.144421219825745
0, 229, 0, 1.127359628677368
0, 230, 0, 1.12770140171051
0, 231, 0, 1.128578662872314
0, 232, 0, 1.13047468662262
0, 233, 0, 1.130307197570801
0, 234, 0, 1.123252153396606
0, 235, 0, 1.107344150543213
0, 236, 0, 1.109074831008911
0, 237, 0, 1.115047216415405
0, 238, 0, 1.113532543182373
0, 239, 0, 1.114542722702026
0, 240, 0, 1.122615814208984
0, 241, 0, 1.112508773803711
0, 242, 0, 1.102705001831055
0, 243, 0, 1.102911233901978
0, 244, 0, 1.1006920337677
0, 245, 0, 1.102038025856018
0, 246, 0, 1.086824536323547
0, 247, 0, 1.106310606002808
0, 248, 0, 1.102276086807251
0, 249, 0, 1.09218430519104
0, 250, 0, 1.096524715423584
0, 251, 0, 1.098379969596863
0, 252, 0, 1.092026233673096
0, 253, 0, 1.082252264022827
0, 254, 0, 1.077055931091309
0, 255, 0, 1.073371410369873
0, 256, 0, 1.096577167510986
0, 257, 0, 1.07464599609375
0, 258, 0, 1.075425624847412
0, 259, 0, 1.06775963306427
0, 260, 0, 1.074555516242981
0, 261, 0, 1.074781656265259
0, 262, 0, 1.132768392562866
0, 263, 0, 1.042881846427917
0, 264, 0, 1.031128525733948
0, 265, 0, 1.032278180122375
0, 266, 0, 1.028943181037903
0, 267, 0, 1.034685492515564
0, 268, 0, 1.022994518280029
0, 269, 0, 1.031503319740295
0, 270, 0, 1.039702296257019
0, 271, 0, 1.037003874778748
0, 272, 0, 1.030363202095032
0, 273, 0, 1.024726867675781
0, 274, 0, 1.029647946357727
0, 275, 0, 1.017643451690674
0, 276, 0, 1.017910718917847
0, 277, 0, 1.013060092926025
0, 278, 0, 1.01279878616333
0, 279, 0, 1.009729981422424
0, 280, 0, 1.000676035881042
0, 281, 0, 0.9995583891868591
0, 282, 0, 0.9970377683639526
0, 283, 0, 0.9939199090003967
0, 284, 0, 0.9947543740272522
0, 285, 0, 0.9889166355133057
0, 286, 0, 0.9844338893890381
0, 287, 0, 0.9743421077728271
0, 288, 0, 0.9654088616371155
0, 289, 0, 0.9707320332527161
0, 290, 0, 0.9569889903068542
0, 291, 0, 0.9610230922698975
0, 292, 0, 0.9470357894897461
0, 293, 0, 0.9373261332511902
0, 294, 0, 0.9281797409057617
0, 295, 0, 0.9203089475631714
0, 296, 0, 0.9043701887130737
0, 297, 0, 0.8794034719467163
0, 298, 0, 0.8603437542915344
0, 299, 0, 0.7020266056060791
