# TOPAS Version: 3.9
# Parameter File: data/topas/input/plan_2/main_160MeV.txt
# Results for scorer: Scoring_protonD_XZBox
# Scored in component: ScoringZXBox
# X in 300 bins of 0.0666667 cm
# Y in 1 bin  of 20 cm
# Z in 300 bins of 0.0666667 cm
# DoseToWater ( Gy ) : Sum   
0, 0, 0, 5.030449301557383e-07
0, 0, 1, 1.608957376220133e-07
0, 0, 2, 2.312164468776245e-07
0, 0, 3, 2.295870160651248e-07
0, 0, 4, 3.777910535518458e-07
0, 0, 5, 2.025731333787917e-07
0, 0, 6, 9.243099441391678e-08
0, 0, 7, 3.181073111591104e-07
0, 0, 8, 3.527347871568054e-07
0, 0, 9, 5.94443235968356e-07
0, 0, 10, 5.746389888372505e-07
0, 0, 11, 1.43704738775341e-07
0, 0, 12, 3.517512539019663e-07
0, 0, 13, 5.287760700412036e-07
0, 0, 14, 8.17719239876169e-07
0, 0, 15, 4.807155846719979e-07
0, 0, 16, 3.304965332517895e-07
0, 0, 17, 1.428300606676203e-07
0, 0, 18, 2.341177918196991e-07
0, 0, 19, 1.137191887323752e-07
0, 0, 20, 7.501038794544002e-07
0, 0, 21, 7.032070357126941e-07
0, 0, 22, 2.285649571831527e-07
0, 0, 23, 1.992583236187784e-07
0, 0, 24, 4.156215993589285e-07
0, 0, 25, 2.340250375709729e-07
0, 0, 26, 3.138699185001315e-07
0, 0, 27, 2.25116693286509e-07
0, 0, 28, 2.38494948234802e-07
0, 0, 29, 4.971298039890826e-07
0, 0, 30, 1.355685554926822e-07
0, 0, 31, 3.152966030484095e-07
0, 0, 32, 7.106024781933229e-07
0, 0, 33, 4.550203698272526e-07
0, 0, 34, 2.04496089395434e-07
0, 0, 35, 6.75648664127948e-07
0, 0, 36, 5.275488774714177e-07
0, 0, 37, 6.27257918495161e-07
0, 0, 38, 1.00487966392393e-06
0, 0, 39, 6.560547376466275e-07
0, 0, 40, 1.981076565016338e-07
0, 0, 41, 4.637510642169218e-07
0, 0, 42, 1.949285035607318e-07
0, 0, 43, 5.097624580230331e-07
0, 0, 44, 2.688975939690863e-07
0, 0, 45, 3.48365688296326e-07
0, 0, 46, 5.49564163065952e-07
0, 0, 47, 5.666811375704128e-07
0, 0, 48, 3.335987059926993e-07
0, 0, 49, 3.997188571247534e-07
0, 0, 50, 4.361212972980866e-07
0, 0, 51, 2.992807708324108e-07
0, 0, 52, 6.830925940448651e-07
0, 0, 53, 5.722454829992785e-07
0, 0, 54, 7.695512636018975e-07
0, 0, 55, 3.024236718829343e-07
0, 0, 56, 7.319412134165759e-07
0, 0, 57, 7.64914318551746e-07
0, 0, 58, 4.913522957394889e-07
0, 0, 59, 6.295379648690869e-07
0, 0, 60, 3.967961106354778e-07
0, 0, 61, 6.970951744733611e-07
0, 0, 62, 5.714479129892425e-07
0, 0, 63, 4.458946705199196e-07
0, 0, 64, 5.512594043466379e-07
0, 0, 65, 7.013385925347393e-07
0, 0, 66, 3.231023129046662e-07
0, 0, 67, 4.521206165009062e-07
0, 0, 68, 4.085243858753529e-07
0, 0, 69, 7.579405405522266e-07
0, 0, 70, 7.577226597277331e-07
0, 0, 71, 5.003485625820758e-07
0, 0, 72, 9.351159064863168e-07
0, 0, 73, 5.003004730497196e-07
0, 0, 74, 3.533107530984125e-07
0, 0, 75, 8.257432568825607e-07
0, 0, 76, 5.293551339491387e-07
0, 0, 77, 4.147532877141202e-07
0, 0, 78, 5.707985337721766e-07
0, 0, 79, 5.16150009843841e-07
0, 0, 80, 6.322718490991974e-07
0, 0, 81, 6.329161692519847e-07
0, 0, 82, 1.081784830603283e-06
0, 0, 83, 5.334321144800924e-07
0, 0, 84, 6.548430064867716e-07
0, 0, 85, 5.738181130254816e-07
0, 0, 86, 4.902609020973614e-07
0, 0, 87, 9.648691730035353e-07
0, 0, 88, 1.18431842111022e-06
0, 0, 89, 1.177679564534628e-06
0, 0, 90, 8.785820000412059e-07
0, 0, 91, 5.890948386877426e-07
0, 0, 92, 1.2578132100316e-06
0, 0, 93, 9.42009307891567e-07
0, 0, 94, 7.073045367178565e-07
0, 0, 95, 1.082796757145843e-06
0, 0, 96, 1.315155031988979e-06
0, 0, 97, 1.063348463503644e-06
0, 0, 98, 9.906935929393512e-07
0, 0, 99, 1.284629661313375e-06
0, 0, 100, 4.389434309359785e-07
0, 0, 101, 7.312055458896793e-07
0, 0, 102, 1.096247160603525e-06
0, 0, 103, 9.021761115945992e-07
0, 0, 104, 9.649434105085675e-07
0, 0, 105, 6.010274660184223e-07
0, 0, 106, 9.018158948492783e-07
0, 0, 107, 6.953129627618182e-07
0, 0, 108, 8.999271017273713e-07
0, 0, 109, 6.985933964642754e-07
0, 0, 110, 1.026682298288506e-06
0, 0, 111, 1.275497197639197e-06
0, 0, 112, 7.336384442169219e-07
0, 0, 113, 8.676028642184974e-07
0, 0, 114, 1.134672061198216e-06
0, 0, 115, 5.923886305936321e-07
0, 0, 116, 6.559022267538239e-07
0, 0, 117, 7.92240314240189e-07
0, 0, 118, 7.463471547453082e-07
0, 0, 119, 7.520275175920688e-07
0, 0, 120, 9.298400414081698e-07
0, 0, 121, 1.419550358150445e-06
0, 0, 122, 8.8275726284337e-07
0, 0, 123, 5.332921659828571e-07
0, 0, 124, 9.802010936255101e-07
0, 0, 125, 9.837583547778195e-07
0, 0, 126, 7.925654585960729e-07
0, 0, 127, 6.157555958452576e-07
0, 0, 128, 1.070692746907298e-06
0, 0, 129, 1.475798967476294e-06
0, 0, 130, 1.154265987679537e-06
0, 0, 131, 6.875083045088104e-07
0, 0, 132, 7.394532985927071e-07
0, 0, 133, 9.728572649692069e-07
0, 0, 134, 1.505495220044395e-06
0, 0, 135, 6.673257075817673e-07
0, 0, 136, 6.642210337304277e-07
0, 0, 137, 6.901313440721424e-07
0, 0, 138, 8.155824957611912e-07
0, 0, 139, 5.497489041772496e-07
0, 0, 140, 1.146720933320466e-06
0, 0, 141, 7.553503564849962e-07
0, 0, 142, 1.195098093376146e-06
0, 0, 143, 9.080322342924774e-07
0, 0, 144, 9.685475106380181e-07
0, 0, 145, 8.638698432150704e-07
0, 0, 146, 9.91448359854985e-07
0, 0, 147, 9.797234952202416e-07
0, 0, 148, 6.473452458521933e-07
0, 0, 149, 9.249591812476865e-07
0, 0, 150, 1.075795466931595e-06
0, 0, 151, 6.024975505170005e-07
0, 0, 152, 8.884301792022598e-07
0, 0, 153, 8.357858405361185e-07
0, 0, 154, 4.794571850652574e-07
0, 0, 155, 7.440553417836782e-07
0, 0, 156, 9.172868544737867e-07
0, 0, 157, 8.523198857801617e-07
0, 0, 158, 1.14978251986031e-06
0, 0, 159, 7.762125164845202e-07
0, 0, 160, 1.075056161425891e-06
0, 0, 161, 7.892312510193733e-07
0, 0, 162, 7.147895075831912e-07
0, 0, 163, 7.131777692848118e-07
0, 0, 164, 7.806860935488658e-07
0, 0, 165, 1.051050162459433e-06
0, 0, 166, 9.230628847944899e-07
0, 0, 167, 8.34582522202254e-07
0, 0, 168, 8.534628932466148e-07
0, 0, 169, 5.411390020526596e-07
0, 0, 170, 9.894948789224145e-07
0, 0, 171, 9.397915619047126e-07
0, 0, 172, 1.218445277118008e-06
0, 0, 173, 1.028293127092184e-06
0, 0, 174, 1.103977751881757e-06
0, 0, 175, 8.26876373594132e-07
0, 0, 176, 9.799933877729927e-07
0, 0, 177, 5.713173436561192e-07
0, 0, 178, 1.027780626827735e-06
0, 0, 179, 5.823443984809273e-07
0, 0, 180, 9.497953783466073e-07
0, 0, 181, 6.866342801004066e-07
0, 0, 182, 6.784595143471961e-07
0, 0, 183, 1.37289100621274e-06
0, 0, 184, 1.404700356033572e-06
0, 0, 185, 7.423919328175543e-07
0, 0, 186, 7.987669050635304e-07
0, 0, 187, 4.625810277048004e-07
0, 0, 188, 6.568540129592293e-07
0, 0, 189, 1.070432745109429e-06
0, 0, 190, 4.668729616241762e-07
0, 0, 191, 6.506751901724783e-07
0, 0, 192, 5.458951477521623e-07
0, 0, 193, 8.296473765767587e-07
0, 0, 194, 7.075287840052624e-07
0, 0, 195, 4.397484190121759e-07
0, 0, 196, 5.406396326179674e-07
0, 0, 197, 1.016753572002926e-06
0, 0, 198, 6.056463348613761e-07
0, 0, 199, 8.18121918655379e-07
0, 0, 200, 1.844192411226686e-06
0, 0, 201, 1.120680281019304e-06
0, 0, 202, 4.463131233478634e-07
0, 0, 203, 5.897873620597238e-07
0, 0, 204, 5.393158062361181e-07
0, 0, 205, 9.184832947539689e-07
0, 0, 206, 6.963311989238719e-07
0, 0, 207, 6.421986995519546e-07
0, 0, 208, 6.694978083032765e-07
0, 0, 209, 7.049962391647568e-07
0, 0, 210, 6.842482207503053e-07
0, 0, 211, 6.487526320597681e-07
0, 0, 212, 7.961497203723411e-07
0, 0, 213, 7.088783036124369e-07
0, 0, 214, 8.198366572287341e-07
0, 0, 215, 4.772641659656074e-07
0, 0, 216, 6.561728014276014e-07
0, 0, 217, 8.033583753785933e-07
0, 0, 218, 7.897403406786907e-07
0, 0, 219, 5.702393650608428e-07
0, 0, 220, 4.092431709068478e-07
0, 0, 221, 5.696505240848637e-07
0, 0, 222, 9.697490668258979e-07
0, 0, 223, 7.608387022628449e-07
0, 0, 224, 8.446440347142925e-07
0, 0, 225, 3.454394459367904e-07
0, 0, 226, 7.050686008369667e-07
0, 0, 227, 6.028262760082725e-07
0, 0, 228, 6.205816021065402e-07
0, 0, 229, 4.007190739230282e-07
0, 0, 230, 5.406307082012063e-07
0, 0, 231, 3.095155136634276e-07
0, 0, 232, 3.475887808690459e-07
0, 0, 233, 5.251800416772312e-07
0, 0, 234, 8.871335239746259e-07
0, 0, 235, 5.758602128480561e-07
0, 0, 236, 3.503838854612695e-07
0, 0, 237, 5.190042884350987e-07
0, 0, 238, 7.033093538666435e-07
0, 0, 239, 4.054305122735968e-07
0, 0, 240, 5.809718572891143e-07
0, 0, 241, 6.043212579243118e-07
0, 0, 242, 4.954271730639448e-07
0, 0, 243, 5.598179768639966e-07
0, 0, 244, 5.702316343558778e-07
0, 0, 245, 6.165598165353003e-07
0, 0, 246, 3.685112233142718e-07
0, 0, 247, 2.523131001908041e-07
0, 0, 248, 3.757446336294379e-07
0, 0, 249, 3.706778954892798e-07
0, 0, 250, 7.142500066947832e-07
0, 0, 251, 5.551825097427354e-07
0, 0, 252, 3.293077099897346e-07
0, 0, 253, 4.039853536141891e-07
0, 0, 254, 2.288212357370867e-07
0, 0, 255, 2.171841799736285e-07
0, 0, 256, 6.331428039629827e-07
0, 0, 257, 6.726288006575487e-07
0, 0, 258, 4.420638219926332e-07
0, 0, 259, 2.146043698303401e-07
0, 0, 260, 3.600996194563777e-07
0, 0, 261, 2.002058465677692e-07
0, 0, 262, 2.767277464954532e-07
0, 0, 263, 3.211626449228788e-07
0, 0, 264, 4.973387603968149e-07
0, 0, 265, 4.647127980206278e-07
0, 0, 266, 7.656450975446205e-07
0, 0, 267, 8.632068784208968e-07
0, 0, 268, 1.784508611990532e-07
0, 0, 269, 1.844507409032303e-07
0, 0, 270, 2.456299057485012e-07
0, 0, 271, 3.748659764823969e-07
0, 0, 272, 5.305071795191907e-07
0, 0, 273, 1.892030070393957e-07
0, 0, 274, 2.6103148798029e-07
0, 0, 275, 4.965506832377287e-07
0, 0, 276, 5.60576154384762e-07
0, 0, 277, 8.491630865137267e-07
0, 0, 278, 3.615022592384776e-07
0, 0, 279, 5.548532726606936e-07
0, 0, 280, 2.040408446646325e-07
0, 0, 281, 2.723672594129312e-07
0, 0, 282, 1.435419108020142e-07
0, 0, 283, 5.628752433040063e-07
0, 0, 284, 2.668740251010604e-07
0, 0, 285, 1.843093855313782e-07
0, 0, 286, 4.06740326752697e-07
0, 0, 287, 2.378048975515412e-07
0, 0, 288, 2.108298247094353e-07
0, 0, 289, 1.031628045211619e-07
0, 0, 290, 3.974994911004615e-07
0, 0, 291, 1.635073232364448e-07
0, 0, 292, 3.312253511467134e-07
0, 0, 293, 3.181237104854517e-07
0, 0, 294, 2.946649715340754e-07
0, 0, 295, 3.783706006288412e-07
0, 0, 296, 4.819535774913675e-07
0, 0, 297, 2.696578462746402e-07
0, 0, 298, 3.047516372589598e-07
0, 0, 299, 1.393762971702017e-07
1, 0, 0, 1.391119042182254e-07
1, 0, 1, 4.116711238566495e-07
1, 0, 2, 2.519243196275056e-07
1, 0, 3, 1.298446079545101e-07
1, 0, 4, 1.363621322525432e-07
1, 0, 5, 3.224385238809191e-07
1, 0, 6, 4.857312205786002e-07
1, 0, 7, 6.091977411415428e-07
1, 0, 8, 5.646378440360422e-07
1, 0, 9, 1.775885039023706e-07
1, 0, 10, 1.543653240787535e-07
1, 0, 11, 3.070928755732893e-07
1, 0, 12, 3.567919577562861e-07
1, 0, 13, 1.989054680961999e-07
1, 0, 14, 3.628977083280915e-07
1, 0, 15, 1.491266488073961e-07
1, 0, 16, 1.937632134740852e-07
1, 0, 17, 1.655718762094693e-07
1, 0, 18, 3.031207711501338e-07
1, 0, 19, 2.75404659078049e-07
1, 0, 20, 2.657020559126977e-07
1, 0, 21, 1.974427590312189e-07
1, 0, 22, 2.342157614521057e-07
1, 0, 23, 1.906706899035271e-07
1, 0, 24, 4.702889100371976e-07
1, 0, 25, 2.024915204401623e-07
1, 0, 26, 3.884992452185543e-07
1, 0, 27, 1.73112283619048e-07
1, 0, 28, 3.181401666552119e-07
1, 0, 29, 2.058835093521338e-07
1, 0, 30, 1.344566129546365e-07
1, 0, 31, 2.618611461002729e-07
1, 0, 32, 2.159069225626808e-07
1, 0, 33, 2.942596495358885e-07
1, 0, 34, 3.144888864881068e-07
1, 0, 35, 2.206585349995294e-07
1, 0, 36, 3.767406155930075e-07
1, 0, 37, 7.150146643652988e-07
1, 0, 38, 5.3000923116997e-07
1, 0, 39, 3.129613048713509e-07
1, 0, 40, 2.479537783983687e-07
1, 0, 41, 1.005729814096412e-06
1, 0, 42, 6.738486604263016e-07
1, 0, 43, 3.088566415954119e-07
1, 0, 44, 7.147848464228446e-07
1, 0, 45, 3.958821537253243e-07
1, 0, 46, 3.469307898740226e-07
1, 0, 47, 3.56105516630123e-07
1, 0, 48, 3.908735664026608e-07
1, 0, 49, 6.563919896507286e-07
1, 0, 50, 8.352254781129886e-07
1, 0, 51, 4.915711997455219e-07
1, 0, 52, 5.284421717988153e-07
1, 0, 53, 3.811825308730477e-07
1, 0, 54, 4.669257691602979e-07
1, 0, 55, 6.358686732710339e-07
1, 0, 56, 4.60588069017831e-07
1, 0, 57, 5.619239118459518e-07
1, 0, 58, 7.270063520081749e-07
1, 0, 59, 9.358054171570984e-07
1, 0, 60, 7.092691021171049e-07
1, 0, 61, 6.178124181133171e-07
1, 0, 62, 8.35164087220619e-07
1, 0, 63, 1.139611754297221e-06
1, 0, 64, 3.510116926008777e-07
1, 0, 65, 5.679406740455306e-07
1, 0, 66, 4.925237249153724e-07
1, 0, 67, 3.572088189685019e-07
1, 0, 68, 4.393172901018261e-07
1, 0, 69, 7.370160233222123e-07
1, 0, 70, 4.480133952711185e-07
1, 0, 71, 5.329496275408019e-07
1, 0, 72, 8.625468126410851e-07
1, 0, 73, 5.901632107452315e-07
1, 0, 74, 4.117520973068167e-07
1, 0, 75, 5.487705720952363e-07
1, 0, 76, 8.170517276084865e-07
1, 0, 77, 4.621414291250403e-07
1, 0, 78, 7.172700406954391e-07
1, 0, 79, 4.030247851005697e-07
1, 0, 80, 8.080876341409748e-07
1, 0, 81, 1.13836085802177e-06
1, 0, 82, 7.316103278753872e-07
1, 0, 83, 6.974489679123508e-07
1, 0, 84, 7.014164111751597e-07
1, 0, 85, 5.713027917408908e-07
1, 0, 86, 9.463304309065279e-07
1, 0, 87, 4.312981616294564e-07
1, 0, 88, 1.143973463513248e-06
1, 0, 89, 9.171267834062746e-07
1, 0, 90, 6.643210213042039e-07
1, 0, 91, 9.140446763922228e-07
1, 0, 92, 6.259076599235414e-07
1, 0, 93, 5.68523262245435e-07
1, 0, 94, 1.029694317367102e-06
1, 0, 95, 7.462276130354439e-07
1, 0, 96, 6.72349358410429e-07
1, 0, 97, 7.004367148510937e-07
1, 0, 98, 8.319995004058001e-07
1, 0, 99, 6.997695436439244e-07
1, 0, 100, 8.84260089151212e-07
1, 0, 101, 4.544685907603707e-07
1, 0, 102, 1.092033471650211e-06
1, 0, 103, 7.181754995144729e-07
1, 0, 104, 8.601951435593946e-07
1, 0, 105, 1.077557953976793e-06
1, 0, 106, 8.43218970203452e-07
1, 0, 107, 9.81438120106759e-07
1, 0, 108, 9.146651791525073e-07
1, 0, 109, 5.693325419997564e-07
1, 0, 110, 8.590566835664504e-07
1, 0, 111, 4.894716880698979e-07
1, 0, 112, 8.280457564069366e-07
1, 0, 113, 9.974371550924843e-07
1, 0, 114, 9.105253866437124e-07
1, 0, 115, 7.162884685385507e-07
1, 0, 116, 8.311573651553772e-07
1, 0, 117, 1.121488139688154e-06
1, 0, 118, 6.703676831421035e-07
1, 0, 119, 8.304106700052216e-07
1, 0, 120, 1.140038079938677e-06
1, 0, 121, 1.028434667205147e-06
1, 0, 122, 8.620654625701718e-07
1, 0, 123, 1.110937205339724e-06
1, 0, 124, 8.14428517514898e-07
1, 0, 125, 8.849352752804407e-07
1, 0, 126, 1.291800913350016e-06
1, 0, 127, 7.939524948596954e-07
1, 0, 128, 9.357083285976842e-07
1, 0, 129, 8.298218858726614e-07
1, 0, 130, 6.605826001759851e-07
1, 0, 131, 5.96938036778738e-07
1, 0, 132, 7.463931979145855e-07
1, 0, 133, 6.157285383778799e-07
1, 0, 134, 9.135923733083473e-07
1, 0, 135, 7.208676606751396e-07
1, 0, 136, 1.169183974525367e-06
1, 0, 137, 1.253005962098541e-06
1, 0, 138, 8.383046861126786e-07
1, 0, 139, 8.682046086505579e-07
1, 0, 140, 1.009734319268318e-06
1, 0, 141, 9.343884244117362e-07
1, 0, 142, 6.811542903051304e-07
1, 0, 143, 7.351231943175662e-07
1, 0, 144, 1.021781031340652e-06
1, 0, 145, 9.977278523365385e-07
1, 0, 146, 1.073304702003952e-06
1, 0, 147, 8.780632470006822e-07
1, 0, 148, 8.17510965589463e-07
1, 0, 149, 1.304694819737051e-06
1, 0, 150, 6.86233079250087e-07
1, 0, 151, 5.647329430757964e-07
1, 0, 152, 5.569848440245551e-07
1, 0, 153, 5.844058250659145e-07
1, 0, 154, 5.511444669537013e-07
1, 0, 155, 9.606444564269623e-07
1, 0, 156, 1.021754769681138e-06
1, 0, 157, 6.575397151209472e-07
1, 0, 158, 1.198440600091999e-06
1, 0, 159, 1.062784122041194e-06
1, 0, 160, 5.052941105532227e-07
1, 0, 161, 9.46451280015026e-07
1, 0, 162, 1.139579580922145e-06
1, 0, 163, 9.394466360390652e-07
1, 0, 164, 6.96178403813974e-07
1, 0, 165, 7.978733265190385e-07
1, 0, 166, 9.266120741813211e-07
1, 0, 167, 1.332636088591244e-06
1, 0, 168, 5.589307079389982e-07
1, 0, 169, 1.065518290488399e-06
1, 0, 170, 9.051092320078169e-07
1, 0, 171, 8.175647963071242e-07
1, 0, 172, 1.398767039972881e-06
1, 0, 173, 1.509402068222698e-06
1, 0, 174, 7.164055659814039e-07
1, 0, 175, 1.027667963171552e-06
1, 0, 176, 1.162416992883664e-06
1, 0, 177, 8.626204248685099e-07
1, 0, 178, 1.268035248358501e-06
1, 0, 179, 7.902984293650661e-07
1, 0, 180, 1.239087850990472e-06
1, 0, 181, 7.851878649489663e-07
1, 0, 182, 6.414010726984998e-07
1, 0, 183, 9.118040225075674e-07
1, 0, 184, 8.359564844795386e-07
1, 0, 185, 5.987290023767855e-07
1, 0, 186, 7.326030413423723e-07
1, 0, 187, 9.843806765275076e-07
1, 0, 188, 6.015563371875032e-07
1, 0, 189, 8.349423978870618e-07
1, 0, 190, 6.864635793135676e-07
1, 0, 191, 7.312136176551576e-07
1, 0, 192, 7.512588240388141e-07
1, 0, 193, 5.716937607758155e-07
1, 0, 194, 5.420690172286413e-07
1, 0, 195, 6.971951620471373e-07
1, 0, 196, 1.36267635753029e-06
1, 0, 197, 9.806448133531376e-07
1, 0, 198, 9.109954248742724e-07
1, 0, 199, 6.651241051258694e-07
1, 0, 200, 8.898155101633165e-07
1, 0, 201, 9.01824989796296e-07
1, 0, 202, 7.038116791591165e-07
1, 0, 203, 8.815654837235343e-07
1, 0, 204, 1.263325202671695e-06
1, 0, 205, 4.733787193345051e-07
1, 0, 206, 1.039555968418426e-06
1, 0, 207, 4.690520256644959e-07
1, 0, 208, 8.277565370917728e-07
1, 0, 209, 5.176039508114627e-07
1, 0, 210, 7.45171519156429e-07
1, 0, 211, 9.058150567398116e-07
1, 0, 212, 8.715179546925356e-07
1, 0, 213, 1.006963543659367e-06
1, 0, 214, 7.1166994075611e-07
1, 0, 215, 9.448767173125816e-07
1, 0, 216, 6.718847203046607e-07
1, 0, 217, 5.029231715525384e-07
1, 0, 218, 7.4308672992629e-07
1, 0, 219, 1.216768737322127e-06
1, 0, 220, 4.65244852421165e-07
1, 0, 221, 5.338134201338107e-07
1, 0, 222, 6.674645760540443e-07
1, 0, 223, 7.547707241428725e-07
1, 0, 224, 8.412392276113678e-07
1, 0, 225, 1.004741761789774e-06
1, 0, 226, 5.714924782296293e-07
1, 0, 227, 7.126652121769439e-07
1, 0, 228, 1.056537712429417e-06
1, 0, 229, 5.930274937782087e-07
1, 0, 230, 4.522354686287144e-07
1, 0, 231, 3.898226736964716e-07
1, 0, 232, 1.036600224324502e-06
1, 0, 233, 3.850290113405208e-07
1, 0, 234, 5.520510626411124e-07
1, 0, 235, 4.952739800501149e-07
1, 0, 236, 6.746095664311724e-07
1, 0, 237, 4.254673910963902e-07
1, 0, 238, 7.116076972124574e-07
1, 0, 239, 5.444811677079997e-07
1, 0, 240, 2.521649946629623e-07
1, 0, 241, 3.432743085340917e-07
1, 0, 242, 4.978027732249757e-07
1, 0, 243, 3.620085067268519e-07
1, 0, 244, 5.849024091730826e-07
1, 0, 245, 5.871660846423765e-07
1, 0, 246, 2.429826793104439e-07
1, 0, 247, 3.782488420256414e-07
1, 0, 248, 6.854491516605776e-07
1, 0, 249, 5.333162107490352e-07
1, 0, 250, 3.922546056855936e-07
1, 0, 251, 6.7429732553137e-07
1, 0, 252, 3.087549202973605e-07
1, 0, 253, 7.750202257739147e-07
1, 0, 254, 8.325914677698165e-07
1, 0, 255, 3.447202630013635e-07
1, 0, 256, 8.314930255437503e-07
1, 0, 257, 6.120703801570926e-07
1, 0, 258, 2.755222965333814e-07
1, 0, 259, 3.645355945991469e-07
1, 0, 260, 4.502534238781664e-07
1, 0, 261, 3.465888482878654e-07
1, 0, 262, 5.097240887153021e-07
1, 0, 263, 2.627166395541281e-07
1, 0, 264, 5.598420216301747e-07
1, 0, 265, 7.212507853182615e-07
1, 0, 266, 1.945129639580045e-07
1, 0, 267, 2.540729440170253e-07
1, 0, 268, 1.625377024083718e-07
1, 0, 269, 3.936552843697427e-07
1, 0, 270, 4.027508566650795e-07
1, 0, 271, 9.136875291915203e-07
1, 0, 272, 2.899962510127807e-07
1, 0, 273, 3.495266867048485e-07
1, 0, 274, 6.083398034206766e-07
1, 0, 275, 4.428756881225127e-07
1, 0, 276, 4.919896809951751e-07
1, 0, 277, 8.723427527002059e-07
1, 0, 278, 1.770625175367968e-07
1, 0, 279, 3.485349964194029e-07
1, 0, 280, 1.763774406526863e-07
1, 0, 281, 1.720318607567606e-07
1, 0, 282, 1.98837554421516e-07
1, 0, 283, 4.329870648689393e-07
1, 0, 284, 2.052024257181984e-07
1, 0, 285, 1.525787638456677e-07
1, 0, 286, 4.88843966195418e-07
1, 0, 287, 1.190264669048702e-07
1, 0, 288, 1.613771303254907e-07
1, 0, 289, 2.795837588109862e-07
1, 0, 290, 3.447226220032462e-07
1, 0, 291, 1.687421189444649e-07
1, 0, 292, 2.701413563954702e-07
1, 0, 293, 2.003138490636047e-07
1, 0, 294, 3.516340143505658e-07
1, 0, 295, 1.846481723077886e-07
1, 0, 296, 5.949126489213086e-07
1, 0, 297, 2.38189969081759e-07
1, 0, 298, 1.650433034683374e-07
1, 0, 299, 5.436011178971967e-07
2, 0, 0, 4.794039796252036e-07
2, 0, 1, 1.771485500512426e-07
2, 0, 2, 1.392197646055138e-07
2, 0, 3, 1.942672867016881e-07
2, 0, 4, 9.590168303930113e-08
2, 0, 5, 5.838038532601786e-07
2, 0, 6, 3.782392923312727e-07
2, 0, 7, 4.055296187743807e-07
2, 0, 8, 3.747216794636188e-07
2, 0, 9, 2.731924553245335e-07
2, 0, 10, 1.882536935227108e-07
2, 0, 11, 8.856962949721492e-07
2, 0, 12, 1.444713575438072e-07
2, 0, 13, 3.277181122030015e-07
2, 0, 14, 2.763961788332381e-07
2, 0, 15, 3.376740664862155e-07
2, 0, 16, 3.385360969332396e-07
2, 0, 17, 4.530376713773876e-07
2, 0, 18, 3.124412444321933e-07
2, 0, 19, 3.498744831631484e-07
2, 0, 20, 1.831979403732475e-07
2, 0, 21, 1.939154401497944e-07
2, 0, 22, 6.457962626882363e-07
2, 0, 23, 1.66435725645897e-07
2, 0, 24, 4.479021811221173e-07
2, 0, 25, 1.378789562522797e-07
2, 0, 26, 2.312566493856139e-07
2, 0, 27, 5.561402645071212e-07
2, 0, 28, 2.293226515348579e-07
2, 0, 29, 3.273644040291401e-07
2, 0, 30, 4.160823152687954e-07
2, 0, 31, 4.077959658843611e-07
2, 0, 32, 2.583321929705562e-07
2, 0, 33, 2.764767543794733e-07
2, 0, 34, 1.774164672951883e-07
2, 0, 35, 1.877717039633353e-07
2, 0, 36, 4.150560073412635e-07
2, 0, 37, 5.388891963775677e-07
2, 0, 38, 4.40419739788922e-07
2, 0, 39, 4.313325803195767e-07
2, 0, 40, 2.115198611818414e-07
2, 0, 41, 2.296507517485225e-07
2, 0, 42, 7.416322773678985e-07
2, 0, 43, 3.21643653933279e-07
2, 0, 44, 4.583304189509363e-07
2, 0, 45, 5.371417728383676e-07
2, 0, 46, 6.966071168790222e-07
2, 0, 47, 5.957934945399757e-07
2, 0, 48, 3.327672288833128e-07
2, 0, 49, 7.447130201398977e-07
2, 0, 50, 1.237166316059302e-06
2, 0, 51, 3.299943784895731e-07
2, 0, 52, 2.381973871479204e-07
2, 0, 53, 4.164289464370086e-07
2, 0, 54, 4.392671542063908e-07
2, 0, 55, 4.65649122816103e-07
2, 0, 56, 5.791516173303535e-07
2, 0, 57, 4.160241928730102e-07
2, 0, 58, 7.79983565735165e-07
2, 0, 59, 8.608992061454046e-07
2, 0, 60, 2.654238357990835e-07
2, 0, 61, 5.437061645352514e-07
2, 0, 62, 5.113941483614326e-07
2, 0, 63, 8.761331855566823e-07
2, 0, 64, 9.436517984795501e-07
2, 0, 65, 8.118250320876541e-07
2, 0, 66, 9.098185955735971e-07
2, 0, 67, 4.202936167985172e-07
2, 0, 68, 5.038176027483132e-07
2, 0, 69, 6.509846457447566e-07
2, 0, 70, 6.891951898069237e-07
2, 0, 71, 8.586719104641816e-07
2, 0, 72, 4.810640916730335e-07
2, 0, 73, 4.801794943887217e-07
2, 0, 74, 8.084718956524739e-07
2, 0, 75, 4.039041812120558e-07
2, 0, 76, 6.061831072656787e-07
2, 0, 77, 5.73249053559266e-07
2, 0, 78, 6.089136377340765e-07
2, 0, 79, 4.196894565211551e-07
2, 0, 80, 6.327259711724764e-07
2, 0, 81, 4.781326197189628e-07
2, 0, 82, 1.072147824743297e-06
2, 0, 83, 5.29186365838541e-07
2, 0, 84, 4.241483395617252e-07
2, 0, 85, 5.789025294689054e-07
2, 0, 86, 5.1250600563435e-07
2, 0, 87, 7.056888762235758e-07
2, 0, 88, 8.557509545426001e-07
2, 0, 89, 1.03688375929778e-06
2, 0, 90, 8.198719569918467e-07
2, 0, 91, 5.609408049167541e-07
2, 0, 92, 1.398383005835058e-06
2, 0, 93, 8.739008308111806e-07
2, 0, 94, 1.078850232261175e-06
2, 0, 95, 8.472940749015834e-07
2, 0, 96, 9.507912182016298e-07
2, 0, 97, 1.382594746246468e-06
2, 0, 98, 8.954592658483307e-07
2, 0, 99, 7.994159432200831e-07
2, 0, 100, 7.060414191073505e-07
2, 0, 101, 9.978110711017507e-07
2, 0, 102, 8.110611133815837e-07
2, 0, 103, 8.034515417421062e-07
2, 0, 104, 1.02179706118477e-06
2, 0, 105, 1.388541932101361e-06
2, 0, 106, 1.010241817311908e-06
2, 0, 107, 1.284462427975086e-06
2, 0, 108, 7.472527272511797e-07
2, 0, 109, 8.31859040317795e-07
2, 0, 110, 6.168327217892511e-07
2, 0, 111, 1.217440285472549e-06
2, 0, 112, 9.291397304878046e-07
2, 0, 113, 7.95678488429985e-07
2, 0, 114, 1.360167175334936e-06
2, 0, 115, 1.487630242991145e-06
2, 0, 116, 8.840354439598741e-07
2, 0, 117, 6.529091933771269e-07
2, 0, 118, 1.028893962029542e-06
2, 0, 119, 6.826135745541251e-07
2, 0, 120, 8.119691301544663e-07
2, 0, 121, 9.670698091213126e-07
2, 0, 122, 1.169834604297648e-06
2, 0, 123, 1.0028443284682e-06
2, 0, 124, 9.148865842689702e-07
2, 0, 125, 1.03134607343236e-06
2, 0, 126, 7.699221100665454e-07
2, 0, 127, 8.2497535913717e-07
2, 0, 128, 7.3031583269767e-07
2, 0, 129, 7.643585604455438e-07
2, 0, 130, 8.926094778871629e-07
2, 0, 131, 7.508780299758655e-07
2, 0, 132, 7.681910574319772e-07
2, 0, 133, 1.344994871033123e-06
2, 0, 134, 1.018619968817802e-06
2, 0, 135, 5.294537004374433e-07
2, 0, 136, 6.540286108247528e-07
2, 0, 137, 1.006985598905885e-06
2, 0, 138, 8.205894914681267e-07
2, 0, 139, 9.182407438856899e-07
2, 0, 140, 5.506529419108119e-07
2, 0, 141, 1.018598027258122e-06
2, 0, 142, 8.046270636441477e-07
2, 0, 143, 1.259574219147908e-06
2, 0, 144, 8.848178936204931e-07
2, 0, 145, 1.040557549458754e-06
2, 0, 146, 9.177435345009144e-07
2, 0, 147, 1.455348751733254e-06
2, 0, 148, 6.435128057091788e-07
2, 0, 149, 1.015669226944738e-06
2, 0, 150, 1.180133153866336e-06
2, 0, 151, 7.567089710391883e-07
2, 0, 152, 8.97006088962371e-07
2, 0, 153, 5.797413109576155e-07
2, 0, 154, 6.164550541143399e-07
2, 0, 155, 9.585204452378093e-07
2, 0, 156, 9.220936476594943e-07
2, 0, 157, 8.744372053115512e-07
2, 0, 158, 1.243088831870409e-06
2, 0, 159, 6.718476583955635e-07
2, 0, 160, 6.944388815099956e-07
2, 0, 161, 6.530069640575675e-07
2, 0, 162, 7.614000310240954e-07
2, 0, 163, 8.968580118562386e-07
2, 0, 164, 1.106619947677245e-06
2, 0, 165, 1.081616687770293e-06
2, 0, 166, 1.19823994282342e-06
2, 0, 167, 8.560147648495331e-07
2, 0, 168, 5.990297040625592e-07
2, 0, 169, 6.739507512065757e-07
2, 0, 170, 8.249406846516649e-07
2, 0, 171, 8.352749887308164e-07
2, 0, 172, 1.314661631113268e-06
2, 0, 173, 1.213493874274718e-06
2, 0, 174, 1.014303165902675e-06
2, 0, 175, 8.734238576835196e-07
2, 0, 176, 8.508099540449621e-07
2, 0, 177, 1.16492003598978e-06
2, 0, 178, 4.666203778924682e-07
2, 0, 179, 7.265204544637527e-07
2, 0, 180, 1.088724502551486e-06
2, 0, 181, 6.323218144643761e-07
2, 0, 182, 9.95890331978444e-07
2, 0, 183, 5.427606879493396e-07
2, 0, 184, 6.861293400106661e-07
2, 0, 185, 1.177079639091971e-06
2, 0, 186, 8.306967629323481e-07
2, 0, 187, 5.857975224898837e-07
2, 0, 188, 1.267014795303112e-06
2, 0, 189, 5.883534299755411e-07
2, 0, 190, 6.020516138960375e-07
2, 0, 191, 8.842746979098592e-07
2, 0, 192, 4.904952675133245e-07
2, 0, 193, 8.086582283794996e-07
2, 0, 194, 6.950048714315926e-07
2, 0, 195, 9.359272326037171e-07
2, 0, 196, 8.60531088164862e-07
2, 0, 197, 7.30154908978875e-07
2, 0, 198, 5.932652697993035e-07
2, 0, 199, 5.651795618177857e-07
2, 0, 200, 6.320649390545441e-07
2, 0, 201, 7.403931476801517e-07
2, 0, 202, 4.855695010519412e-07
2, 0, 203, 5.586181828221015e-07
2, 0, 204, 6.828242362644232e-07
2, 0, 205, 5.567806056205882e-07
2, 0, 206, 6.449693046306493e-07
2, 0, 207, 6.151364573270257e-07
2, 0, 208, 7.454625006175775e-07
2, 0, 209, 6.853235277048952e-07
2, 0, 210, 6.291296585914097e-07
2, 0, 211, 7.943178843561327e-07
2, 0, 212, 1.117757619795157e-06
2, 0, 213, 5.772795361735916e-07
2, 0, 214, 7.522477289967355e-07
2, 0, 215, 7.257778520397551e-07
2, 0, 216, 5.248635943644331e-07
2, 0, 217, 7.845956702112744e-07
2, 0, 218, 7.108861268534383e-07
2, 0, 219, 5.630863597616553e-07
2, 0, 220, 5.835350407323858e-07
2, 0, 221, 5.547341856981802e-07
2, 0, 222, 5.761773991252994e-07
2, 0, 223, 4.592663174207701e-07
2, 0, 224, 4.24456914061011e-07
2, 0, 225, 5.456809049064759e-07
2, 0, 226, 1.441213726138812e-06
2, 0, 227, 8.414572789661179e-07
2, 0, 228, 7.704404652031371e-07
2, 0, 229, 7.672226729482645e-07
2, 0, 230, 1.36329413180647e-06
2, 0, 231, 6.042020572749607e-07
2, 0, 232, 1.210908408211253e-06
2, 0, 233, 5.380087486628327e-07
2, 0, 234, 6.676430075458484e-07
2, 0, 235, 5.821683544127154e-07
2, 0, 236, 5.184335805097362e-07
2, 0, 237, 7.204283178907644e-07
2, 0, 238, 5.784395398222841e-07
2, 0, 239, 6.040975222276757e-07
2, 0, 240, 3.308910265786835e-07
2, 0, 241, 5.247983949629997e-07
2, 0, 242, 5.188243221709854e-07
2, 0, 243, 5.125396569383156e-07
2, 0, 244, 3.88485290159224e-07
2, 0, 245, 4.065211953729886e-07
2, 0, 246, 2.789327879781922e-07
2, 0, 247, 2.693895169159077e-07
2, 0, 248, 2.927963009824452e-07
2, 0, 249, 3.073289178701089e-07
2, 0, 250, 6.177595537337766e-07
2, 0, 251, 3.901199931988231e-07
2, 0, 252, 2.390214319802908e-07
2, 0, 253, 3.878922711919586e-07
2, 0, 254, 4.615666000518104e-07
2, 0, 255, 4.64117306364642e-07
2, 0, 256, 3.800125512043451e-07
2, 0, 257, 4.01442406428032e-07
2, 0, 258, 4.278042808891769e-07
2, 0, 259, 2.975085351408779e-07
2, 0, 260, 2.689400560029753e-07
2, 0, 261, 3.373154982000415e-07
2, 0, 262, 8.381578595617611e-07
2, 0, 263, 2.305941535496459e-07
2, 0, 264, 5.895441859138373e-07
2, 0, 265, 1.917030232334582e-07
2, 0, 266, 2.424737601813831e-07
2, 0, 267, 2.424597767003434e-07
2, 0, 268, 6.728323000970704e-07
2, 0, 269, 6.803932706134219e-07
2, 0, 270, 3.427124681820715e-07
2, 0, 271, 1.261653039819066e-07
2, 0, 272, 4.822243795388204e-07
2, 0, 273, 2.133431280526565e-07
2, 0, 274, 2.497074547136435e-07
2, 0, 275, 3.298536910278926e-07
2, 0, 276, 5.371182965063781e-07
2, 0, 277, 4.454386157703993e-07
2, 0, 278, 4.028889293294924e-07
2, 0, 279, 1.85631094495875e-07
2, 0, 280, 1.780413612095799e-07
2, 0, 281, 2.053823209280381e-07
2, 0, 282, 5.643012741529674e-07
2, 0, 283, 2.995657837345789e-07
2, 0, 284, 1.527810979951028e-07
2, 0, 285, 2.674230756838369e-07
2, 0, 286, 1.525841071270406e-07
2, 0, 287, 1.320675835358998e-07
2, 0, 288, 6.103829264247906e-07
2, 0, 289, 2.963280394396861e-07
2, 0, 290, 2.387581901075464e-07
2, 0, 291, 3.786965123708796e-07
2, 0, 292, 2.99490778843392e-07
2, 0, 293, 2.904411928739137e-07
2, 0, 294, 1.229904000865645e-07
2, 0, 295, 2.67106969431552e-07
2, 0, 296, 1.872095225508019e-07
2, 0, 297, 3.424048600209062e-07
2, 0, 298, 1.544227075100935e-07
2, 0, 299, 2.74522960808099e-07
3, 0, 0, 4.96844563713239e-07
3, 0, 1, 1.964436222579025e-07
3, 0, 2, 2.604229507596756e-07
3, 0, 3, 2.15007503356901e-07
3, 0, 4, 1.018547379771917e-07
3, 0, 5, 4.861724391957978e-07
3, 0, 6, 1.68872944072973e-07
3, 0, 7, 1.857106042280066e-07
3, 0, 8, 4.329281466652901e-07
3, 0, 9, 2.58252015328253e-07
3, 0, 10, 4.095534507086995e-07
3, 0, 11, 2.008548136700483e-07
3, 0, 12, 2.1067091893201e-07
3, 0, 13, 1.572351635559244e-07
