# TOPAS Version: 3.9
# Parameter File: data/topas/input/plan_2/main_160MeV.txt
# Results for scorer: TQeff
# Scored in component: ScoringYBox
# X in 1 bin  of 2 cm
# Y in 300 bins of 0.0666667 cm
# Z in 1 bin  of 2 cm
# Qeff : Sum   
0, 0, 0, 132.9747924804688
0, 1, 0, 121.920768737793
0, 2, 0, 147.5021820068359
0, 3, 0, 133.5256500244141
0, 4, 0, 131.0861206054688
0, 5, 0, 135.3141326904297
0, 6, 0, 130.5291137695312
0, 7, 0, 144.3282318115234
0, 8, 0, 135.8407897949219
0, 9, 0, 145.1458129882812
0, 10, 0, 158.5923309326172
0, 11, 0, 159.6451110839844
0, 12, 0, 141.1977844238281
0, 13, 0, 146.6156921386719
0, 14, 0, 137.3899841308594
0, 15, 0, 141.7200012207031
0, 16, 0, 139.023193359375
0, 17, 0, 144.5918426513672
0, 18, 0, 146.8887786865234
0, 19, 0, 142.9191131591797
0, 20, 0, 145.6327362060547
0, 21, 0, 151.5982666015625
0, 22, 0, 140.5993804931641
0, 23, 0, 137.6161651611328
0, 24, 0, 142.2816314697266
0, 25, 0, 139.3019104003906
0, 26, 0, 137.0311279296875
0, 27, 0, 130.2603302001953
0, 28, 0, 126.0941772460938
0, 29, 0, 116.9409103393555
0, 30, 0, 110.3991622924805
0, 31, 0, 105.1763916015625
0, 32, 0, 100.702766418457
0, 33, 0, 95.56142425537109
0, 34, 0, 91.548828125
0, 35, 0, 86.86740875244141
0, 36, 0, 82.59088897705078
0, 37, 0, 77.81236267089844
0, 38, 0, 73.3209228515625
0, 39, 0, 68.63011932373047
0, 40, 0, 64.09831237792969
0, 41, 0, 59.35932540893555
0, 42, 0, 54.84844207763672
0, 43, 0, 50.33096313476562
0, 44, 0, 46.16262817382812
0, 45, 0, 42.0155029296875
0, 46, 0, 38.20729064941406
0, 47, 0, 34.73037338256836
0, 48, 0, 31.53150749206543
0, 49, 0, 28.72990989685059
0, 50, 0, 26.31047248840332
0, 51, 0, 24.22342109680176
0, 52, 0, 22.48671340942383
0, 53, 0, 21.04166984558105
0, 54, 0, 19.8198184967041
0, 55, 0, 18.77448272705078
0, 56, 0, 17.91450119018555
0, 57, 0, 17.16162872314453
0, 58, 0, 16.46900177001953
0, 59, 0, 15.91140270233154
0, 60, 0, 15.36441993713379
0, 61, 0, 14.89981174468994
0, 62, 0, 14.47940063476562
0, 63, 0, 14.11616325378418
0, 64, 0, 13.75640869140625
0, 65, 0, 13.41058349609375
0, 66, 0, 13.12465381622314
0, 67, 0, 12.82492351531982
0, 68, 0, 12.57378196716309
0, 69, 0, 12.32323455810547
0, 70, 0, 12.08162212371826
0, 71, 0, 11.85142040252686
0, 72, 0, 11.65278720855713
0, 73, 0, 11.46029853820801
0, 74, 0, 11.26851654052734
0, 75, 0, 11.11111927032471
0, 76, 0, 10.92683506011963
0, 77, 0, 10.74992656707764
0, 78, 0, 10.61602592468262
0, 79, 0, 10.48170471191406
0, 80, 0, 10.35222816467285
0, 81, 0, 10.205735206604
0, 82, 0, 10.1065559387207
0, 83, 0, 9.941741943359375
0, 84, 0, 9.839710235595703
0, 85, 0, 9.738109588623047
0, 86, 0, 9.622560501098633
0, 87, 0, 9.527284622192383
0, 88, 0, 9.435277938842773
0, 89, 0, 9.32051944732666
0, 90, 0, 9.222476005554199
0, 91, 0, 9.151462554931641
0, 92, 0, 9.056490898132324
0, 93, 0, 8.986252784729004
0, 94, 0, 8.903849601745605
0, 95, 0, 8.81989860534668
0, 96, 0, 8.760002136230469
0, 97, 0, 8.683231353759766
0, 98, 0, 8.607882499694824
0, 99, 0, 8.535199165344238
0, 100, 0, 8.467273712158203
0, 101, 0, 8.410416603088379
0, 102, 0, 8.337961196899414
0, 103, 0, 8.275116920471191
0, 104, 0, 8.218855857849121
0, 105, 0, 8.13198184967041
0, 106, 0, 8.090534210205078
0, 107, 0, 8.040207862854004
0, 108, 0, 7.967177867889404
0, 109, 0, 7.930025577545166
0, 110, 0, 7.873711585998535
0, 111, 0, 7.822811603546143
0, 112, 0, 7.765183925628662
0, 113, 0, 7.72595739364624
0, 114, 0, 7.66184139251709
0, 115, 0, 7.609167575836182
0, 116, 0, 7.564226627349854
0, 117, 0, 7.527880191802979
0, 118, 0, 7.481137275695801
0, 119, 0, 7.446341991424561
0, 120, 0, 7.390572547912598
0, 121, 0, 7.337477684020996
0, 122, 0, 7.300905704498291
0, 123, 0, 7.264729022979736
0, 124, 0, 7.221612930297852
0, 125, 0, 7.179522514343262
0, 126, 0, 7.16240406036377
0, 127, 0, 7.119044303894043
0, 128, 0, 7.070912837982178
0, 129, 0, 7.02523136138916
0, 130, 0, 7.002673149108887
0, 131, 0, 6.962636947631836
0, 132, 0, 6.916401386260986
0, 133, 0, 6.902620792388916
0, 134, 0, 6.866171836853027
0, 135, 0, 6.830815315246582
0, 136, 0, 6.802731990814209
0, 137, 0, 6.765144824981689
0, 138, 0, 6.733673572540283
0, 139, 0, 6.696853160858154
0, 140, 0, 6.663286685943604
0, 141, 0, 6.649235248565674
0, 142, 0, 6.621357917785645
0, 143, 0, 6.596542835235596
0, 144, 0, 6.5567307472229
0, 145, 0, 6.542339324951172
0, 146, 0, 6.519790649414062
0, 147, 0, 6.494096279144287
0, 148, 0, 6.450417518615723
0, 149, 0, 6.413801193237305
0, 150, 0, 6.388941764831543
0, 151, 0, 6.382187843322754
0, 152, 0, 6.354880809783936
0, 153, 0, 6.311996459960938
0, 154, 0, 6.302587985992432
0, 155, 0, 6.283545970916748
0, 156, 0, 6.234366893768311
0, 157, 0, 6.212561130523682
0, 158, 0, 6.19231128692627
0, 159, 0, 6.166370868682861
0, 160, 0, 6.147667407989502
0, 161, 0, 6.128783702850342
0, 162, 0, 6.104434967041016
0, 163, 0, 6.091421604156494
0, 164, 0, 6.071284770965576
0, 165, 0, 6.037702083587646
0, 166, 0, 6.013968467712402
0, 167, 0, 5.970136165618896
0, 168, 0, 5.978039741516113
0, 169, 0, 5.940282344818115
0, 170, 0, 5.932613372802734
0, 171, 0, 5.920086860656738
0, 172, 0, 5.913649082183838
0, 173, 0, 5.897366523742676
0, 174, 0, 5.857017993927002
0, 175, 0, 5.847866535186768
0, 176, 0, 5.819839954376221
0, 177, 0, 5.804947376251221
0, 178, 0, 5.784156799316406
0, 179, 0, 5.744176387786865
0, 180, 0, 5.742267608642578
0, 181, 0, 5.710463523864746
0, 182, 0, 5.702728271484375
0, 183, 0, 5.688843250274658
0, 184, 0, 5.680529594421387
0, 185, 0, 5.675189971923828
0, 186, 0, 5.646103382110596
0, 187, 0, 5.628713130950928
0, 188, 0, 5.608330249786377
0, 189, 0, 5.600060939788818
0, 190, 0, 5.559817790985107
0, 191, 0, 5.540101051330566
0, 192, 0, 5.537702083587646
0, 193, 0, 5.534667015075684
0, 194, 0, 5.507380485534668
0, 195, 0, 5.480371952056885
0, 196, 0, 5.461013793945312
0, 197, 0, 5.438374996185303
0, 198, 0, 5.42948055267334
0, 199, 0, 5.426295757293701
0, 200, 0, 5.419330596923828
0, 201, 0, 5.402851581573486
0, 202, 0, 5.370194911956787
0, 203, 0, 5.370258808135986
0, 204, 0, 5.351404666900635
0, 205, 0, 5.326940059661865
0, 206, 0, 5.3202223777771
0, 207, 0, 5.300806999206543
0, 208, 0, 5.294179439544678
0, 209, 0, 5.259969234466553
0, 210, 0, 5.263426303863525
0, 211, 0, 5.243654251098633
0, 212, 0, 5.242968082427979
0, 213, 0, 5.206244945526123
0, 214, 0, 5.200706005096436
0, 215, 0, 5.203059673309326
0, 216, 0, 5.16375207901001
0, 217, 0, 5.164453506469727
0, 218, 0, 5.159571647644043
0, 219, 0, 5.123509883880615
0, 220, 0, 5.129343509674072
0, 221, 0, 5.116575241088867
0, 222, 0, 5.113903999328613
0, 223, 0, 5.090640544891357
0, 224, 0, 5.066720962524414
0, 225, 0, 5.062594890594482
0, 226, 0, 5.039919376373291
0, 227, 0, 5.033614158630371
0, 228, 0, 5.029739856719971
0, 229, 0, 5.006426334381104
0, 230, 0, 4.977954387664795
0, 231, 0, 4.968342781066895
0, 232, 0, 4.964734554290771
0, 233, 0, 4.970357894897461
0, 234, 0, 4.948681831359863
0, 235, 0, 4.904630184173584
0, 236, 0, 4.90885591506958
0, 237, 0, 4.897753715515137
0, 238, 0, 4.892745018005371
0, 239, 0, 4.877805233001709
0, 240, 0, 4.878713607788086
0, 241, 0, 4.86037015914917
0, 242, 0, 4.851222038269043
0, 243, 0, 4.837086200714111
0, 244, 0, 4.823077201843262
0, 245, 0, 4.803020477294922
0, 246, 0, 4.778635025024414
0, 247, 0, 4.78778076171875
0, 248, 0, 4.782309055328369
0, 249, 0, 4.757708072662354
0, 250, 0, 4.761862277984619
0, 251, 0, 4.741496086120605
0, 252, 0, 4.743967533111572
0, 253, 0, 4.71240234375
0, 254, 0, 4.701076030731201
0, 255, 0, 4.687169075012207
0, 256, 0, 4.698821544647217
0, 257, 0, 4.658953666687012
0, 258, 0, 4.651379108428955
0, 259, 0, 4.635371685028076
0, 260, 0, 4.627293109893799
0, 261, 0, 4.625543594360352
0, 262, 0, 4.59835958480835
0, 263, 0, 4.58843994140625
0, 264, 0, 4.570387363433838
0, 265, 0, 4.559463977813721
0, 266, 0, 4.554224967956543
0, 267, 0, 4.535870552062988
0, 268, 0, 4.516717433929443
0, 269, 0, 4.520358562469482
0, 270, 0, 4.504080295562744
0, 271, 0, 4.487139701843262
0, 272, 0, 4.466519355773926
0, 273, 0, 4.458399295806885
0, 274, 0, 4.464710712432861
0, 275, 0, 4.432050228118896
0, 276, 0, 4.426694869995117
0, 277, 0, 4.41522216796875
0, 278, 0, 4.408231258392334
0, 279, 0, 4.379170894622803
0, 280, 0, 4.377624988555908
0, 281, 0, 4.357253074645996
0, 282, 0, 4.349519729614258
0, 283, 0, 4.341063976287842
0, 284, 0, 4.333603858947754
0, 285, 0, 4.32463550567627
0, 286, 0, 4.29641056060791
0, 287, 0, 4.280575752258301
0, 288, 0, 4.268491268157959
0, 289, 0, 4.263464450836182
0, 290, 0, 4.244203567504883
0, 291, 0, 4.228849411010742
0, 292, 0, 4.218468189239502
0, 293, 0, 4.191562175750732
0, 294, 0, 4.177433013916016
0, 295, 0, 4.1648850440979
0, 296, 0, 4.135301113128662
0, 297, 0, 4.098085880279541
0, 298, 0, 4.083499908447266
0, 299, 0, 4.027524948120117
