# TOPAS Version: 3.9
# Parameter File: data/topas/input/plan_1a/main_2GySOBP.txt
# Results for scorer: Scoring_protonD_XZBox
# Scored in component: ScoringZXBox
# X in 300 bins of 0.0666667 cm
# Y in 1 bin  of 20 cm
# Z in 300 bins of 0.0666667 cm
# DoseToWater ( Gy ) : Sum   
0, 0, 0, 8.722177824438404e-08
0, 0, 1, 1.873664672302766e-07
0, 0, 2, 1.8860851014324e-07
0, 0, 3, 4.678194542862002e-08
0, 0, 4, 6.685933584549275e-08
0, 0, 5, 1.011456447486125e-07
0, 0, 6, 7.091892229027508e-08
0, 0, 7, 2.749983991634508e-07
0, 0, 8, 5.388404744621766e-08
0, 0, 9, 4.264247621676986e-08
0, 0, 10, 8.520054706195879e-08
0, 0, 11, 7.357525788620478e-08
0, 0, 12, 5.800757918450472e-08
0, 0, 13, 7.249975197964886e-08
0, 0, 14, 7.132228319051137e-08
0, 0, 15, 8.358149017340111e-08
0, 0, 16, 4.577970003083465e-08
0, 0, 17, 1.654137520290533e-07
0, 0, 18, 6.153402409836417e-08
0, 0, 19, 8.678632212877346e-08
0, 0, 20, 1.830130145208386e-07
0, 0, 21, 1.795513924207626e-07
0, 0, 22, 9.322507565912019e-08
0, 0, 23, 5.967306293541697e-08
0, 0, 24, 7.888821329515849e-08
0, 0, 25, 6.980027933423116e-08
0, 0, 26, 6.531908525175822e-08
0, 0, 27, 5.795465796154531e-08
0, 0, 28, 5.894413845908275e-08
0, 0, 29, 7.941098800756663e-08
0, 0, 30, 3.177081566718698e-07
0, 0, 31, 4.777655249199597e-08
0, 0, 32, 7.646431754437799e-08
0, 0, 33, 7.221094477927181e-08
0, 0, 34, 1.41831463906783e-07
0, 0, 35, 8.864468981073514e-08
0, 0, 36, 7.507983212917679e-08
0, 0, 37, 6.65197177340815e-08
0, 0, 38, 7.09923213548791e-08
0, 0, 39, 7.41201731102592e-08
0, 0, 40, 4.942214104630693e-08
0, 0, 41, 1.708241370579344e-07
0, 0, 42, 1.0204318812157e-07
0, 0, 43, 1.323106175732391e-07
0, 0, 44, 2.929741356183513e-07
0, 0, 45, 9.796790578775472e-08
0, 0, 46, 9.433078673737327e-08
0, 0, 47, 2.449552312100423e-07
0, 0, 48, 8.28861814738957e-08
0, 0, 49, 2.213531189454443e-07
0, 0, 50, 2.037009778632637e-07
0, 0, 51, 1.314591315804137e-07
0, 0, 52, 2.815117454701976e-07
0, 0, 53, 1.209912312560846e-07
0, 0, 54, 1.584255642228527e-07
0, 0, 55, 1.134360942955936e-07
0, 0, 56, 1.11546711423216e-07
0, 0, 57, 8.120173333736602e-08
0, 0, 58, 1.54069951463498e-07
0, 0, 59, 1.073429189091257e-06
0, 0, 60, 4.993879088033282e-07
0, 0, 61, 6.025629772921093e-08
0, 0, 62, 1.282113970546561e-07
0, 0, 63, 1.125529109913259e-07
0, 0, 64, 1.178492468056902e-07
0, 0, 65, 3.010543707659963e-07
0, 0, 66, 1.0848015818965e-07
0, 0, 67, 1.345441802413916e-07
0, 0, 68, 1.198496306642483e-07
0, 0, 69, 3.031445885426365e-07
0, 0, 70, 1.28277619637629e-07
0, 0, 71, 1.123371816902363e-06
0, 0, 72, 1.425216993311551e-07
0, 0, 73, 3.575730431748525e-07
0, 0, 74, 2.529260427763802e-07
0, 0, 75, 3.765872804706305e-07
0, 0, 76, 9.366053177473077e-08
0, 0, 77, 1.267308959995717e-07
0, 0, 78, 1.346955968983821e-07
0, 0, 79, 1.86457157269615e-07
0, 0, 80, 3.06823494611308e-07
0, 0, 81, 1.995830416490207e-07
0, 0, 82, 1.81677876298636e-07
0, 0, 83, 1.902694322097886e-07
0, 0, 84, 1.966710527767646e-07
0, 0, 85, 3.784794273542502e-07
0, 0, 86, 1.872492418897309e-07
0, 0, 87, 3.812860711605026e-07
0, 0, 88, 3.047714471904328e-07
0, 0, 89, 5.615992222374189e-07
0, 0, 90, 1.962947351330513e-07
0, 0, 91, 4.289658477318881e-07
0, 0, 92, 5.176585773369879e-07
0, 0, 93, 2.117635489184977e-07
0, 0, 94, 2.33952931694148e-07
0, 0, 95, 2.313459503966442e-07
0, 0, 96, 2.136998347168628e-07
0, 0, 97, 6.793327997911547e-07
0, 0, 98, 2.514113930374151e-07
0, 0, 99, 5.980630817248311e-07
0, 0, 100, 1.877802873195833e-07
0, 0, 101, 1.705993639689041e-07
0, 0, 102, 2.227276354460628e-07
0, 0, 103, 1.407185266089073e-07
0, 0, 104, 1.617123643882223e-07
0, 0, 105, 6.017085070197936e-07
0, 0, 106, 4.877203991782153e-07
0, 0, 107, 3.701527475641342e-07
0, 0, 108, 6.047305873835285e-07
0, 0, 109, 5.30441297996731e-07
0, 0, 110, 1.655992605265055e-07
0, 0, 111, 4.971238354301022e-07
0, 0, 112, 4.494312122460542e-07
0, 0, 113, 8.278735776912072e-07
0, 0, 114, 3.380161786026292e-07
0, 0, 115, 1.875517483540534e-07
0, 0, 116, 2.264018519326783e-07
0, 0, 117, 2.107557293129503e-07
0, 0, 118, 1.891069842940851e-07
0, 0, 119, 1.68250068099951e-07
0, 0, 120, 3.421365590838832e-07
0, 0, 121, 6.876809379718907e-07
0, 0, 122, 3.245271500418312e-07
0, 0, 123, 1.581283299856295e-07
0, 0, 124, 2.757028312316834e-07
0, 0, 125, 2.092638169415295e-07
0, 0, 126, 1.917606908818925e-07
0, 0, 127, 1.639882896142808e-07
0, 0, 128, 1.75993491779991e-07
0, 0, 129, 3.258070364609011e-07
0, 0, 130, 3.079252337556682e-07
0, 0, 131, 2.895488364629273e-07
0, 0, 132, 1.762017802775517e-07
0, 0, 133, 5.649248464578704e-07
0, 0, 134, 1.776099765038452e-07
0, 0, 135, 2.183801512956052e-07
0, 0, 136, 8.343943704858248e-07
0, 0, 137, 5.424188316283107e-07
0, 0, 138, 2.038232196355239e-07
0, 0, 139, 2.258330340509929e-07
0, 0, 140, 5.780509013675328e-07
0, 0, 141, 2.272996226793111e-07
0, 0, 142, 1.801387981004154e-07
0, 0, 143, 1.456606213423584e-07
0, 0, 144, 1.802155082941681e-07
0, 0, 145, 4.097072690001369e-07
0, 0, 146, 1.956664164026733e-07
0, 0, 147, 2.919425980962842e-07
0, 0, 148, 2.197254218572198e-07
0, 0, 149, 9.642392342357198e-07
0, 0, 150, 2.641131686687004e-07
0, 0, 151, 3.40616423954998e-07
0, 0, 152, 4.497819645621348e-07
0, 0, 153, 1.839302683492861e-07
0, 0, 154, 3.959532364206098e-07
0, 0, 155, 2.021575227217909e-07
0, 0, 156, 4.710726670964505e-07
0, 0, 157, 1.69734732935467e-07
0, 0, 158, 2.321812075933849e-07
0, 0, 159, 1.675431775538527e-07
0, 0, 160, 2.368569766986184e-07
0, 0, 161, 1.924293826505163e-07
0, 0, 162, 1.84384191470599e-07
0, 0, 163, 3.535899679718568e-07
0, 0, 164, 1.330564742829665e-07
0, 0, 165, 1.611749667063123e-07
0, 0, 166, 2.114812502895802e-07
0, 0, 167, 4.743295676234993e-07
0, 0, 168, 2.583967386726727e-07
0, 0, 169, 6.73783972615638e-07
0, 0, 170, 1.068564642991987e-06
0, 0, 171, 5.042718385084299e-07
0, 0, 172, 2.117863431294609e-07
0, 0, 173, 3.257181617755123e-07
0, 0, 174, 3.336285772093106e-07
0, 0, 175, 1.323460736557536e-07
0, 0, 176, 2.374198686538875e-07
0, 0, 177, 2.088338959538305e-07
0, 0, 178, 5.818432669002505e-07
0, 0, 179, 1.619683018816431e-07
0, 0, 180, 4.739184475965885e-07
0, 0, 181, 2.044634470621531e-07
0, 0, 182, 4.319998367918743e-07
0, 0, 183, 2.500050300113799e-07
0, 0, 184, 2.028896659567181e-07
0, 0, 185, 2.244501757786566e-07
0, 0, 186, 2.495707747129927e-07
0, 0, 187, 3.008622115885373e-07
0, 0, 188, 2.677150519048155e-07
0, 0, 189, 2.481451417679637e-07
0, 0, 190, 6.418447355827084e-07
0, 0, 191, 4.338888004440378e-07
0, 0, 192, 1.860917961948871e-07
0, 0, 193, 1.622702114900676e-07
0, 0, 194, 7.326217428271775e-07
0, 0, 195, 1.882980598111317e-07
0, 0, 196, 2.858568279862084e-07
0, 0, 197, 3.545822551132005e-07
0, 0, 198, 3.343598962146643e-07
0, 0, 199, 2.306471742485883e-07
0, 0, 200, 1.696170528475704e-07
0, 0, 201, 1.713628421384783e-07
0, 0, 202, 2.603969733172562e-07
0, 0, 203, 5.546031616177061e-07
0, 0, 204, 3.015044285348267e-07
0, 0, 205, 1.788017272019715e-07
0, 0, 206, 4.207526558275276e-07
0, 0, 207, 1.507835776237698e-07
0, 0, 208, 1.451591060686042e-07
0, 0, 209, 2.453678575875529e-07
0, 0, 210, 3.679480471419083e-07
0, 0, 211, 3.035828228803439e-07
0, 0, 212, 2.103006977449695e-07
0, 0, 213, 1.469249610863699e-07
0, 0, 214, 2.50864019335495e-07
0, 0, 215, 2.790542907860072e-07
0, 0, 216, 2.255391535754825e-07
0, 0, 217, 2.124027389527328e-07
0, 0, 218, 1.170213295154099e-07
0, 0, 219, 2.793011049107008e-07
0, 0, 220, 3.571008164726663e-07
0, 0, 221, 1.537021887543233e-07
0, 0, 222, 1.130973714680295e-07
0, 0, 223, 3.351829604980594e-07
0, 0, 224, 1.839237881995359e-07
0, 0, 225, 1.998023435589857e-07
0, 0, 226, 1.028531073643535e-07
0, 0, 227, 2.247178372272174e-07
0, 0, 228, 1.31403680825315e-07
0, 0, 229, 1.494593675488431e-07
0, 0, 230, 1.266334663796442e-07
0, 0, 231, 2.439035995394079e-07
0, 0, 232, 7.44816546216498e-08
0, 0, 233, 2.967567809264438e-07
0, 0, 234, 1.452638542787099e-07
0, 0, 235, 1.818624895122412e-07
0, 0, 236, 3.483615671484586e-07
0, 0, 237, 1.099543069926767e-07
0, 0, 238, 9.480145735096812e-08
0, 0, 239, 8.391818369091197e-07
0, 0, 240, 1.662401558633064e-07
0, 0, 241, 4.61108157878698e-07
0, 0, 242, 1.041032504645045e-07
0, 0, 243, 3.753565920305846e-07
0, 0, 244, 3.464815847564751e-07
0, 0, 245, 1.077019007311719e-07
0, 0, 246, 6.480412650944345e-08
0, 0, 247, 2.244658929839716e-07
0, 0, 248, 1.319733939908474e-07
0, 0, 249, 9.957365421087161e-08
0, 0, 250, 3.364951055573329e-07
0, 0, 251, 4.700772535670694e-07
0, 0, 252, 3.06872692590332e-07
0, 0, 253, 2.608394140679593e-07
0, 0, 254, 7.403216528700796e-08
0, 0, 255, 2.52424030122711e-07
0, 0, 256, 9.938119660546363e-08
0, 0, 257, 8.816414975854059e-08
0, 0, 258, 4.216755939978611e-07
0, 0, 259, 5.33369416189089e-07
0, 0, 260, 4.774002491103602e-07
0, 0, 261, 1.546022332377106e-07
0, 0, 262, 2.300577364167111e-07
0, 0, 263, 3.900568970038876e-07
0, 0, 264, 6.607189106944134e-08
0, 0, 265, 1.046625897060949e-07
0, 0, 266, 8.065018874958696e-08
0, 0, 267, 3.23882076713744e-08
0, 0, 268, 8.916897797917045e-08
0, 0, 269, 2.084048702499786e-07
0, 0, 270, 5.766156050412974e-07
0, 0, 271, 1.06715489778253e-07
0, 0, 272, 1.104236488913557e-07
0, 0, 273, 3.513805211241561e-07
0, 0, 274, 6.8217971715967e-08
0, 0, 275, 2.176800961706249e-07
0, 0, 276, 7.308017302420922e-08
0, 0, 277, 7.471374630085847e-08
0, 0, 278, 4.414877352587609e-08
0, 0, 279, 4.552353516373842e-08
0, 0, 280, 3.283134901721496e-07
0, 0, 281, 4.035409233438259e-07
0, 0, 282, 9.892790586718547e-08
0, 0, 283, 7.085297681896918e-08
0, 0, 284, 5.210705467106891e-08
0, 0, 285, 6.788820883230073e-08
0, 0, 286, 5.441310335640992e-08
0, 0, 287, 2.528877018903586e-07
0, 0, 288, 8.268040119219222e-08
0, 0, 289, 3.710824358904574e-08
0, 0, 290, 2.387844233453507e-07
0, 0, 291, 5.375252598582847e-08
0, 0, 292, 1.730450804870998e-07
0, 0, 293, 2.310810742756075e-07
0, 0, 294, 7.22721651413849e-08
0, 0, 295, 1.488674286065361e-07
0, 0, 296, 5.900272270764617e-08
0, 0, 297, 6.04568342055245e-08
0, 0, 298, 7.875040353155782e-08
0, 0, 299, 1.612285274177339e-07
1, 0, 0, 4.344338933037761e-08
1, 0, 1, 4.887242255335877e-08
1, 0, 2, 8.516334304431439e-08
1, 0, 3, 6.839977828576593e-08
1, 0, 4, 1.881103202094891e-07
1, 0, 5, 4.087957705678491e-08
1, 0, 6, 8.663653972007523e-08
1, 0, 7, 9.469251693872138e-08
1, 0, 8, 4.170725560470601e-07
1, 0, 9, 5.989205931200559e-08
1, 0, 10, 5.072153044238803e-07
1, 0, 11, 2.701673906813085e-07
1, 0, 12, 4.246177454092503e-08
1, 0, 13, 4.316017765404467e-08
1, 0, 14, 6.487388759524038e-08
1, 0, 15, 1.426977291885123e-07
1, 0, 16, 6.525333162699098e-08
1, 0, 17, 6.188655277128419e-08
1, 0, 18, 1.256085369050197e-07
1, 0, 19, 5.542420211668286e-08
1, 0, 20, 2.780214742870157e-07
1, 0, 21, 2.631431641475501e-07
1, 0, 22, 6.529238305574836e-08
1, 0, 23, 7.562375969882851e-08
1, 0, 24, 4.432199887105526e-07
1, 0, 25, 1.517293952701948e-07
1, 0, 26, 1.931316973013963e-07
1, 0, 27, 8.589032773897998e-08
1, 0, 28, 7.05548401924716e-08
1, 0, 29, 1.841357573084679e-07
1, 0, 30, 8.676867224721718e-08
1, 0, 31, 1.486241103521024e-07
1, 0, 32, 8.5033228458542e-08
1, 0, 33, 7.405081703382166e-08
1, 0, 34, 9.067109374427673e-08
1, 0, 35, 7.521521183662117e-08
1, 0, 36, 7.320589645587461e-08
1, 0, 37, 7.921174471903214e-08
1, 0, 38, 8.415284469265316e-08
1, 0, 39, 1.647388074843548e-07
1, 0, 40, 7.217306574602844e-08
1, 0, 41, 9.284048729796268e-08
1, 0, 42, 7.689650516340407e-08
1, 0, 43, 3.270098432039958e-07
1, 0, 44, 1.145585954986927e-07
1, 0, 45, 1.966772913419845e-07
1, 0, 46, 2.931967060249008e-07
1, 0, 47, 2.11726955967606e-07
1, 0, 48, 3.407525070997508e-07
1, 0, 49, 9.144278578787635e-08
1, 0, 50, 2.93909437232287e-07
1, 0, 51, 7.343592756114958e-08
1, 0, 52, 8.699310427573437e-08
1, 0, 53, 8.601259793294957e-08
1, 0, 54, 5.122141146784998e-07
1, 0, 55, 3.886956676524278e-07
1, 0, 56, 1.279092458617015e-07
1, 0, 57, 1.001906895226057e-07
1, 0, 58, 1.186138405273596e-07
1, 0, 59, 2.490658346232522e-07
1, 0, 60, 1.830149329862252e-07
1, 0, 61, 8.143080520994772e-08
1, 0, 62, 1.101742199693945e-07
1, 0, 63, 4.189735989257315e-07
1, 0, 64, 1.216220084643282e-07
1, 0, 65, 2.198232635919339e-07
1, 0, 66, 1.088202239429847e-07
1, 0, 67, 3.599333240345004e-07
1, 0, 68, 1.751716496301015e-07
1, 0, 69, 1.458336527093707e-07
1, 0, 70, 1.550532147120975e-07
1, 0, 71, 4.510189057782554e-07
1, 0, 72, 8.900715897652844e-08
1, 0, 73, 2.296469858720229e-07
1, 0, 74, 5.989778628645581e-07
1, 0, 75, 1.245382321712896e-07
1, 0, 76, 4.721117363715166e-07
1, 0, 77, 4.530512569544953e-07
1, 0, 78, 1.358820469476996e-07
1, 0, 79, 1.688210602424078e-07
1, 0, 80, 1.00845284123352e-07
1, 0, 81, 2.708894157876784e-07
1, 0, 82, 1.73149004467632e-07
1, 0, 83, 2.241817469439411e-07
1, 0, 84, 1.557995972234494e-07
1, 0, 85, 5.785078656117548e-07
1, 0, 86, 6.827702918599243e-07
1, 0, 87, 1.935024869226254e-07
1, 0, 88, 1.820458379597767e-07
1, 0, 89, 3.625735303103284e-07
1, 0, 90, 3.024817090135912e-07
1, 0, 91, 1.694469631274842e-07
1, 0, 92, 1.135340639280003e-07
1, 0, 93, 3.775766117541934e-07
1, 0, 94, 1.510255174252961e-07
1, 0, 95, 1.762478660793931e-07
1, 0, 96, 1.946682175457681e-07
1, 0, 97, 4.506744062382495e-07
1, 0, 98, 1.691772411049897e-07
1, 0, 99, 6.756747552572051e-07
1, 0, 100, 2.784222488116939e-07
1, 0, 101, 2.527497713344928e-07
1, 0, 102, 1.564677631904487e-07
1, 0, 103, 6.082397021600627e-07
1, 0, 104, 1.463347416574834e-07
1, 0, 105, 3.610852274960052e-07
1, 0, 106, 7.718496135566966e-07
1, 0, 107, 1.914742284725435e-07
1, 0, 108, 2.54035683155962e-07
1, 0, 109, 4.166621181411756e-07
1, 0, 110, 4.135227413826215e-07
1, 0, 111, 1.745788580365115e-07
1, 0, 112, 1.496199502071249e-07
1, 0, 113, 2.5158030325656e-07
1, 0, 114, 1.824579243248081e-07
1, 0, 115, 1.898442576475645e-07
1, 0, 116, 2.065442572529719e-07
1, 0, 117, 2.077977541148357e-07
1, 0, 118, 2.456416439144959e-07
1, 0, 119, 1.782895111546168e-07
1, 0, 120, 2.618370160689665e-07
1, 0, 121, 4.166279268247308e-07
1, 0, 122, 1.85195233370905e-07
1, 0, 123, 6.261829526010843e-07
1, 0, 124, 4.922655421069067e-07
1, 0, 125, 4.44401450749865e-07
1, 0, 126, 8.069832801993471e-07
1, 0, 127, 1.548430645925691e-07
1, 0, 128, 2.235037470654788e-07
1, 0, 129, 3.678429720821441e-07
1, 0, 130, 1.899947648098532e-07
1, 0, 131, 3.057660364902404e-07
1, 0, 132, 2.022771496967835e-07
1, 0, 133, 3.615829768932599e-07
1, 0, 134, 1.889096097329457e-07
1, 0, 135, 5.892673016205663e-07
1, 0, 136, 7.506552037739311e-07
1, 0, 137, 3.487260471501941e-07
1, 0, 138, 4.264993833658082e-07
1, 0, 139, 6.918706390024454e-07
1, 0, 140, 4.303166178942774e-07
1, 0, 141, 7.072456469359167e-07
1, 0, 142, 2.331384081344368e-07
1, 0, 143, 3.641022487954615e-07
1, 0, 144, 5.306327466314542e-07
1, 0, 145, 2.051904459676734e-07
1, 0, 146, 5.289363684823911e-07
1, 0, 147, 2.678457917681953e-07
1, 0, 148, 5.379782805903233e-07
1, 0, 149, 4.807617983715318e-07
1, 0, 150, 9.278937227463757e-07
1, 0, 151, 1.455734519595353e-07
1, 0, 152, 6.335906164167682e-07
1, 0, 153, 2.752419732132694e-07
1, 0, 154, 1.530695215024025e-07
1, 0, 155, 2.767073112863727e-07
1, 0, 156, 2.100897518175771e-07
1, 0, 157, 2.824304772275354e-07
1, 0, 158, 4.718360457900417e-07
1, 0, 159, 3.564347537121648e-07
1, 0, 160, 6.802014809181856e-07
1, 0, 161, 3.254361899962532e-07
1, 0, 162, 2.900283107010182e-07
1, 0, 163, 4.417963452851836e-07
1, 0, 164, 2.581582236871327e-07
1, 0, 165, 4.610940607108205e-07
1, 0, 166, 2.55604476251392e-07
1, 0, 167, 2.384396395882504e-07
1, 0, 168, 5.621666900879063e-07
1, 0, 169, 2.381704717890898e-07
1, 0, 170, 7.929047001198342e-07
1, 0, 171, 3.240321007069724e-07
1, 0, 172, 6.423446166081703e-07
1, 0, 173, 2.763131874417013e-07
1, 0, 174, 2.15794244695644e-07
1, 0, 175, 6.154834295557521e-07
1, 0, 176, 1.918270839951219e-07
1, 0, 177, 2.28961880566203e-07
1, 0, 178, 1.857139153571552e-07
1, 0, 179, 2.116318142952878e-07
1, 0, 180, 4.434670870523405e-07
1, 0, 181, 2.141877359917999e-07
1, 0, 182, 2.280916504560082e-07
1, 0, 183, 2.410536126262741e-07
1, 0, 184, 2.167137012065723e-07
1, 0, 185, 1.942646719044205e-07
1, 0, 186, 2.16953523590746e-07
1, 0, 187, 1.750592133475948e-07
1, 0, 188, 4.138791496188787e-07
1, 0, 189, 1.554984123686154e-07
1, 0, 190, 2.033596757655687e-07
1, 0, 191, 2.170231141462864e-07
1, 0, 192, 4.960210731042025e-07
1, 0, 193, 3.996142652340495e-07
1, 0, 194, 7.128246011234296e-07
1, 0, 195, 1.991456173300321e-07
1, 0, 196, 3.679115252452902e-07
1, 0, 197, 1.991101328258083e-07
1, 0, 198, 5.764591151091736e-07
1, 0, 199, 5.212673954702041e-07
1, 0, 200, 3.371437458099535e-07
1, 0, 201, 4.380992209007672e-07
1, 0, 202, 3.559289893928508e-07
1, 0, 203, 5.838879815200926e-07
1, 0, 204, 6.313753146969248e-07
1, 0, 205, 4.034664016216993e-07
1, 0, 206, 2.990410052916559e-07
1, 0, 207, 1.697786728982464e-07
1, 0, 208, 1.335213539732649e-07
1, 0, 209, 4.630756222923083e-07
1, 0, 210, 3.618097537128051e-07
1, 0, 211, 2.14641701745677e-07
1, 0, 212, 9.165527785626182e-07
1, 0, 213, 4.181116253221262e-07
1, 0, 214, 2.051830989557857e-07
1, 0, 215, 1.750161260360983e-07
1, 0, 216, 3.896748239640146e-07
1, 0, 217, 1.582638162744843e-07
1, 0, 218, 1.184194147185735e-07
1, 0, 219, 7.955312639751355e-07
1, 0, 220, 1.258933082226577e-07
1, 0, 221, 3.132912809178379e-07
1, 0, 222, 2.898397610806569e-07
1, 0, 223, 1.183183115927022e-07
1, 0, 224, 6.626006552323815e-07
1, 0, 225, 2.989746121784265e-07
1, 0, 226, 3.223540829822014e-07
1, 0, 227, 1.076969482483037e-07
1, 0, 228, 5.435527441477461e-07
1, 0, 229, 4.692471406997356e-07
1, 0, 230, 2.371491092389988e-07
1, 0, 231, 2.906554357196001e-07
1, 0, 232, 3.897538363162312e-07
1, 0, 233, 1.16117895743173e-07
1, 0, 234, 1.325321647982491e-07
1, 0, 235, 2.172244677467461e-07
1, 0, 236, 1.326966554415776e-07
1, 0, 237, 1.443403334633331e-07
1, 0, 238, 1.750402276456953e-07
1, 0, 239, 1.645569511765643e-07
1, 0, 240, 5.330231829248078e-07
1, 0, 241, 8.655854344397085e-08
1, 0, 242, 8.90761953087349e-08
1, 0, 243, 1.408053833529266e-07
1, 0, 244, 1.485946370394231e-07
1, 0, 245, 9.883629559226392e-08
1, 0, 246, 9.403882472724945e-08
1, 0, 247, 2.794621423163335e-07
1, 0, 248, 1.94250077356628e-07
1, 0, 249, 2.166719923479832e-07
1, 0, 250, 3.429163086821063e-07
1, 0, 251, 2.692281384497619e-07
1, 0, 252, 5.174709940547473e-07
1, 0, 253, 1.169753645058336e-07
1, 0, 254, 2.941743559858878e-07
1, 0, 255, 2.914690355737548e-07
1, 0, 256, 1.388856389894499e-07
1, 0, 257, 3.159467212299205e-07
1, 0, 258, 1.089597390091512e-07
1, 0, 259, 2.563769214702916e-07
1, 0, 260, 2.467964463903627e-07
1, 0, 261, 6.110806793913071e-08
1, 0, 262, 1.209545530400646e-07
1, 0, 263, 8.7921350200304e-08
1, 0, 264, 2.206440399277199e-07
1, 0, 265, 8.096237991139787e-08
1, 0, 266, 3.157398964503955e-07
1, 0, 267, 3.02464201240582e-07
1, 0, 268, 3.737201836884196e-07
1, 0, 269, 1.750164670966114e-07
1, 0, 270, 6.581107925285323e-08
1, 0, 271, 1.198188783746446e-07
1, 0, 272, 4.835407452219442e-08
1, 0, 273, 7.924761291633331e-08
1, 0, 274, 5.268470886221621e-07
1, 0, 275, 3.01249684753202e-07
1, 0, 276, 3.720310246535519e-07
1, 0, 277, 1.211738975825938e-07
1, 0, 278, 1.83184795332636e-07
1, 0, 279, 5.952341552983853e-08
1, 0, 280, 8.60079509834577e-08
1, 0, 281, 6.859852419438539e-08
1, 0, 282, 6.956403098001829e-08
1, 0, 283, 8.578992094498972e-08
1, 0, 284, 4.26318287338745e-08
1, 0, 285, 4.606970094300777e-07
1, 0, 286, 7.011601610429352e-08
1, 0, 287, 1.018331374780246e-07
1, 0, 288, 9.103694509349225e-08
1, 0, 289, 1.158840632342617e-07
1, 0, 290, 5.939295277812562e-08
1, 0, 291, 5.038516803779203e-08
1, 0, 292, 1.243711977849671e-07
1, 0, 293, 2.236075715700281e-07
1, 0, 294, 1.179203437118304e-07
1, 0, 295, 4.38224851961877e-08
1, 0, 296, 1.041824475578323e-07
1, 0, 297, 5.51214540678302e-08
1, 0, 298, 1.023490483476053e-07
1, 0, 299, 6.606175162460204e-08
2, 0, 0, 4.171498702021381e-08
2, 0, 1, 6.527874063522177e-08
2, 0, 2, 1.435752210454666e-07
2, 0, 3, 2.414936375316756e-07
2, 0, 4, 5.707952155376006e-08
2, 0, 5, 5.787365964238234e-08
2, 0, 6, 3.063485678467259e-07
2, 0, 7, 9.945290457835654e-08
2, 0, 8, 7.654456624095474e-08
2, 0, 9, 7.900252541048758e-08
2, 0, 10, 4.687555232862906e-08
2, 0, 11, 8.678346574697571e-08
2, 0, 12, 8.983811738971781e-08
2, 0, 13, 6.344441061401085e-08
2, 0, 14, 8.742362922475877e-08
2, 0, 15, 6.840862454282615e-08
2, 0, 16, 5.331108710038279e-08
2, 0, 17, 7.06840310726875e-08
2, 0, 18, 1.009689682973658e-07
2, 0, 19, 8.053442712707692e-08
2, 0, 20, 1.298581224773443e-07
2, 0, 21, 9.916070808912991e-08
2, 0, 22, 2.170444730609233e-07
2, 0, 23, 6.490912340950672e-08
2, 0, 24, 8.944513751885097e-08
2, 0, 25, 1.006431560313104e-07
2, 0, 26, 1.809569027955149e-07
2, 0, 27, 1.204560362566554e-07
2, 0, 28, 5.826936799735449e-08
2, 0, 29, 6.504310334776164e-08
2, 0, 30, 1.992410858520088e-07
2, 0, 31, 1.843312134042208e-07
2, 0, 32, 1.870303378836979e-07
2, 0, 33, 4.672232378766239e-08
2, 0, 34, 6.978503108712175e-08
2, 0, 35, 2.073398803759119e-07
2, 0, 36, 5.869472374797624e-08
2, 0, 37, 1.065646486608784e-07
2, 0, 38, 8.630158987443792e-08
2, 0, 39, 2.093011346460116e-07
2, 0, 40, 1.989989470985165e-07
2, 0, 41, 1.05913329662144e-07
2, 0, 42, 4.263322921360668e-07
2, 0, 43, 3.869235172260233e-07
2, 0, 44, 1.218869982722026e-07
2, 0, 45, 3.707060045599064e-07
2, 0, 46, 9.775467191275311e-08
2, 0, 47, 1.175079589188499e-07
2, 0, 48, 3.586633283703122e-07
2, 0, 49, 1.616462697029419e-07
2, 0, 50, 3.253155682614306e-07
2, 0, 51, 8.221280722864321e-08
2, 0, 52, 8.570812326524901e-08
2, 0, 53, 7.163792759001808e-08
2, 0, 54, 2.5340207798763e-07
2, 0, 55, 1.534097862077033e-07
2, 0, 56, 1.833666658512811e-07
2, 0, 57, 4.926583301312348e-07
2, 0, 58, 1.121906549883533e-07
2, 0, 59, 1.572086318901711e-07
2, 0, 60, 1.443527537503542e-07
2, 0, 61, 3.623085547133087e-07
2, 0, 62, 8.783256788547078e-08
2, 0, 63, 1.393711812625043e-07
2, 0, 64, 2.564093506407517e-07
2, 0, 65, 2.225219901674791e-07
2, 0, 66, 1.339454911430948e-07
2, 0, 67, 2.239147249838425e-07
2, 0, 68, 3.591099186905922e-07
2, 0, 69, 1.753322038666738e-07
2, 0, 70, 6.35289154615748e-07
2, 0, 71, 1.089422525524242e-07
2, 0, 72, 2.451369311984308e-07
2, 0, 73, 1.861700127392396e-07
2, 0, 74, 1.615906342067319e-07
2, 0, 75, 1.4675829618227e-07
2, 0, 76, 1.76855181166502e-07
2, 0, 77, 1.494468193641296e-07
2, 0, 78, 3.22181705314506e-07
2, 0, 79, 2.901640527852578e-07
2, 0, 80, 1.856363240904102e-07
2, 0, 81, 1.691568627393281e-07
2, 0, 82, 5.933139846092672e-07
2, 0, 83, 6.253408741940802e-07
2, 0, 84, 3.331751941004768e-07
2, 0, 85, 2.00964507257595e-07
2, 0, 86, 3.606377276810235e-07
2, 0, 87, 3.244303456995112e-07
2, 0, 88, 5.105731020194071e-07
2, 0, 89, 1.7422665621325e-07
2, 0, 90, 2.167061410318638e-07
2, 0, 91, 3.746639549717656e-07
2, 0, 92, 2.323636607570734e-07
2, 0, 93, 1.230025645782007e-07
2, 0, 94, 1.448359370215258e-07
2, 0, 95, 4.442446766006469e-07
2, 0, 96, 1.744110562640344e-07
2, 0, 97, 4.946409148942621e-07
2, 0, 98, 1.434551393231231e-07
2, 0, 99, 4.84113286347565e-07
2, 0, 100, 1.552329820242448e-07
2, 0, 101, 2.163132108989885e-07
2, 0, 102, 1.843111476773629e-07
2, 0, 103, 2.230078877119013e-07
2, 0, 104, 4.615863531398645e-07
2, 0, 105, 2.610609328712599e-07
2, 0, 106, 4.801785848940199e-07
2, 0, 107, 6.362208750942955e-07
2, 0, 108, 1.874995518846845e-07
2, 0, 109, 2.016910229940549e-07
2, 0, 110, 2.624915964588581e-07
2, 0, 111, 2.09545817142498e-07
2, 0, 112, 4.117005119042005e-07
2, 0, 113, 3.650952180578315e-07
2, 0, 114, 2.822586111506098e-07
2, 0, 115, 3.147619054288953e-07
2, 0, 116, 7.662139296371606e-07
2, 0, 117, 1.602101917796972e-07
2, 0, 118, 2.941808077139285e-07
2, 0, 119, 2.744970686308079e-07
2, 0, 120, 7.567812190245604e-07
2, 0, 121, 4.066292831339524e-07
2, 0, 122, 1.872268740044092e-07
2, 0, 123, 2.927633886429248e-07
2, 0, 124, 3.723061183791287e-07
2, 0, 125, 2.130119014509546e-07
2, 0, 126, 6.261598741730268e-07
2, 0, 127, 4.194905045551423e-07
2, 0, 128, 2.907527800743992e-07
2, 0, 129, 2.324139387610558e-07
2, 0, 130, 4.510531539381191e-07
2, 0, 131, 1.70536594623627e-07
2, 0, 132, 2.189498360394282e-07
2, 0, 133, 2.833445762462361e-07
2, 0, 134, 2.411998138995841e-07
2, 0, 135, 5.337305992725305e-07
2, 0, 136, 2.883863317038049e-07
2, 0, 137, 2.858838001884578e-07
2, 0, 138, 2.012989028798984e-07
2, 0, 139, 4.611944746102381e-07
2, 0, 140, 2.438693513795442e-07
2, 0, 141, 4.315371882057661e-07
2, 0, 142, 6.056689016986638e-07
2, 0, 143, 6.363295597111573e-07
2, 0, 144, 2.199891326881698e-07
2, 0, 145, 1.865074636953068e-07
2, 0, 146, 5.063771482127777e-07
2, 0, 147, 2.186125414027629e-07
2, 0, 148, 2.515212145226542e-07
2, 0, 149, 2.330387189886096e-07
2, 0, 150, 5.096964628137357e-07
2, 0, 151, 1.791759132174775e-07
2, 0, 152, 2.236043457060077e-07
2, 0, 153, 2.104620762111153e-07
2, 0, 154, 1.71899557699362e-07
2, 0, 155, 4.029633942082e-07
2, 0, 156, 3.150474299218331e-07
2, 0, 157, 2.283806566083513e-07
2, 0, 158, 2.883879801629519e-07
2, 0, 159, 4.12966301155393e-07
2, 0, 160, 1.859705633933117e-07
2, 0, 161, 1.894013195169464e-07
2, 0, 162, 2.245907495534993e-07
2, 0, 163, 4.40922065081395e-07
2, 0, 164, 1.935333813207762e-07
2, 0, 165, 7.276013889168098e-07
2, 0, 166, 3.119406812857051e-07
2, 0, 167, 7.188817789938184e-07
2, 0, 168, 3.155864476411807e-07
2, 0, 169, 6.072805831536243e-07
2, 0, 170, 2.323553331962103e-07
2, 0, 171, 5.549608772525971e-07
2, 0, 172, 2.43772660724062e-07
2, 0, 173, 3.992876145275659e-07
2, 0, 174, 3.193002839907422e-07
2, 0, 175, 2.833165808624472e-07
2, 0, 176, 3.283874434600875e-07
2, 0, 177, 3.912763588687085e-07
2, 0, 178, 2.390943905083986e-07
2, 0, 179, 2.156822915821976e-07
2, 0, 180, 3.479974282072362e-07
2, 0, 181, 2.18694864884128e-07
2, 0, 182, 6.765382067897008e-07
2, 0, 183, 3.747174162072042e-07
2, 0, 184, 3.706350923948776e-07
2, 0, 185, 3.804943560226093e-07
2, 0, 186, 2.359375201876901e-07
2, 0, 187, 2.027776844215623e-07
2, 0, 188, 1.25267717976385e-07
2, 0, 189, 3.647050164090615e-07
2, 0, 190, 2.408484078841866e-07
2, 0, 191, 1.937058016210358e-07
2, 0, 192, 4.319955451137503e-07
2, 0, 193, 4.435121638834971e-07
2, 0, 194, 2.832490224591311e-07
2, 0, 195, 1.886807865503215e-07
2, 0, 196, 2.290538816396293e-07
2, 0, 197, 1.890750809252495e-07
2, 0, 198, 3.008852615948854e-07
2, 0, 199, 4.030077604966209e-07
2, 0, 200, 4.056334148572205e-07
2, 0, 201, 1.960620608087993e-07
2, 0, 202, 6.718741474287526e-07
2, 0, 203, 2.804018208735215e-07
2, 0, 204, 1.482493843241173e-07
2, 0, 205, 2.600623361104226e-07
2, 0, 206, 3.816292917235842e-07
2, 0, 207, 2.12942723010201e-07
2, 0, 208, 6.717810379086586e-07
2, 0, 209, 4.067364614002145e-07
2, 0, 210, 2.470805213761196e-07
2, 0, 211, 6.529557481371739e-07
2, 0, 212, 2.191181351918203e-07
2, 0, 213, 1.67486078339607e-07
2, 0, 214, 1.469756369942843e-07
2, 0, 215, 1.965880471743731e-07
2, 0, 216, 1.341735753612738e-07
2, 0, 217, 2.666529610451107e-07
2, 0, 218, 1.645854723619777e-07
2, 0, 219, 7.602064329148561e-07
2, 0, 220, 1.703664338492672e-07
2, 0, 221, 1.496568984293845e-07
2, 0, 222, 1.470745871756662e-07
2, 0, 223, 2.10618225082726e-07
2, 0, 224, 2.058574892771503e-07
2, 0, 225, 1.330722483317004e-07
2, 0, 226, 1.270827567623201e-07
2, 0, 227, 2.409991850527149e-07
2, 0, 228, 1.311465069875339e-07
2, 0, 229, 3.266490011810674e-07
2, 0, 230, 3.780642714446003e-07
2, 0, 231, 1.176487955945049e-07
2, 0, 232, 1.223915120363017e-07
2, 0, 233, 1.142781513863156e-07
2, 0, 234, 1.83155904665e-07
2, 0, 235, 9.313298221513833e-08
2, 0, 236, 1.127771724895865e-07
2, 0, 237, 4.668759743253759e-07
2, 0, 238, 1.502022826116445e-07
2, 0, 239, 1.890906133894532e-07
2, 0, 240, 1.216636746903532e-07
2, 0, 241, 9.072075357607901e-08
2, 0, 242, 2.852030718258902e-07
2, 0, 243, 3.812336046848941e-07
2, 0, 244, 2.323838259599142e-07
2, 0, 245, 1.286541930767271e-07
2, 0, 246, 1.772141189348986e-07
2, 0, 247, 3.257598280015372e-07
2, 0, 248, 9.32980412926554e-08
2, 0, 249, 1.209664759471707e-07
2, 0, 250, 1.310898625206391e-07
2, 0, 251, 1.043918445020608e-07
2, 0, 252, 9.563452607608269e-08
2, 0, 253, 2.087164006070452e-07
2, 0, 254, 2.466067599016242e-07
2, 0, 255, 9.717702198486222e-08
2, 0, 256, 5.71905900415004e-07
2, 0, 257, 5.410852850218362e-07
2, 0, 258, 4.150895165366819e-07
2, 0, 259, 4.411481882016233e-07
2, 0, 260, 5.093691513025078e-08
2, 0, 261, 2.712338016408467e-07
2, 0, 262, 9.401105671713594e-08
2, 0, 263, 2.022302538762233e-07
2, 0, 264, 5.499151711774175e-07
2, 0, 265, 1.055428668905734e-07
2, 0, 266, 5.778624085905903e-07
2, 0, 267, 7.503309262801849e-08
2, 0, 268, 5.518415946426103e-07
2, 0, 269, 5.99026819259052e-08
2, 0, 270, 4.786269869327953e-08
2, 0, 271, 7.058415718574906e-08
2, 0, 272, 5.599462937766475e-08
2, 0, 273, 4.196584200144571e-07
2, 0, 274, 3.803158321602496e-08
2, 0, 275, 8.171868870476828e-08
2, 0, 276, 5.534335656420808e-08
2, 0, 277, 2.171840520759361e-07
2, 0, 278, 1.776248979012962e-07
2, 0, 279, 1.001932758981638e-07
2, 0, 280, 8.207554458294908e-08
2, 0, 281, 1.807675147347254e-07
2, 0, 282, 7.1690898550969e-08
2, 0, 283, 3.008273097293568e-07
2, 0, 284, 6.431577048715553e-08
2, 0, 285, 1.495552339747519e-07
2, 0, 286, 6.753423065219977e-08
2, 0, 287, 1.150247186387787e-07
2, 0, 288, 3.136280781745882e-07
2, 0, 289, 1.067451407266162e-07
2, 0, 290, 5.098754485288737e-08
2, 0, 291, 6.188532353235132e-08
2, 0, 292, 3.155882950522937e-07
2, 0, 293, 4.797611907747523e-08
2, 0, 294, 6.246595063430505e-08
2, 0, 295, 5.358414512102172e-08
2, 0, 296, 4.954204868568013e-08
2, 0, 297, 6.025955201494071e-08
2, 0, 298, 6.010621689256368e-08
2, 0, 299, 1.578578832095445e-07
3, 0, 0, 6.341549152466541e-08
3, 0, 1, 8.230728809621723e-08
3, 0, 2, 4.103114648046358e-08
3, 0, 3, 9.543592938143775e-08
3, 0, 4, 2.750499561443576e-07
3, 0, 5, 2.177950193527067e-07
3, 0, 6, 4.383761265103203e-08
3, 0, 7, 1.960732589623149e-07
3, 0, 8, 5.641216560547946e-08
3, 0, 9, 5.824176696478389e-08
3, 0, 10, 1.009194861012475e-07
3, 0, 11, 3.770967396121705e-07
3, 0, 12, 8.114540861470232e-08
3, 0, 13, 8.89421443162064e-08
