# TOPAS Version: 3.9
# Parameter File: data/topas/input/plan_1c/main_2GySOBP.txt
# Results for scorer: Scoring_protonD_XZBox
# Scored in component: ScoringZXBox
# X in 300 bins of 0.0666667 cm
# Y in 1 bin  of 20 cm
# Z in 300 bins of 0.0666667 cm
# DoseToWater ( Gy ) : Sum   
0, 0, 0, 3.542530890854323e-08
0, 0, 1, 7.116722144928644e-08
0, 0, 2, 5.633249600123236e-08
0, 0, 3, 2.408797854513978e-07
0, 0, 4, 5.636468003444861e-08
0, 0, 5, 2.926779814060865e-07
0, 0, 6, 6.279896780370109e-08
0, 0, 7, 7.234328336380713e-08
0, 0, 8, 5.476539044479978e-08
0, 0, 9, 1.667968660967745e-07
0, 0, 10, 6.374062877512188e-08
0, 0, 11, 6.046921185998144e-08
0, 0, 12, 1.053498692726862e-07
0, 0, 13, 9.205389517319418e-08
0, 0, 14, 8.163944187344896e-08
0, 0, 15, 5.06290760426964e-08
0, 0, 16, 1.355137158043362e-07
0, 0, 17, 9.298655356815289e-08
0, 0, 18, 3.834693700355274e-07
0, 0, 19, 9.266317846368111e-08
0, 0, 20, 1.018364130800364e-07
0, 0, 21, 2.01601650928751e-07
0, 0, 22, 8.621518787776949e-08
0, 0, 23, 5.393976820755597e-08
0, 0, 24, 6.318265377558419e-08
0, 0, 25, 2.367028884009414e-07
0, 0, 26, 7.972326443450584e-08
0, 0, 27, 7.995100759217166e-08
0, 0, 28, 2.638395528720139e-07
0, 0, 29, 2.150309654780358e-07
0, 0, 30, 1.085856311533462e-07
0, 0, 31, 2.10857635352113e-07
0, 0, 32, 3.841176692276349e-07
0, 0, 33, 8.876835977389419e-08
0, 0, 34, 5.029544354329119e-07
0, 0, 35, 1.086647642978278e-07
0, 0, 36, 9.832233871520657e-08
0, 0, 37, 9.295124669961297e-08
0, 0, 38, 2.069629090328817e-07
0, 0, 39, 2.136797832008597e-07
0, 0, 40, 8.881098523261244e-08
0, 0, 41, 8.029834930312063e-08
0, 0, 42, 7.373886035111354e-08
0, 0, 43, 7.498091747493163e-08
0, 0, 44, 8.437578458142525e-08
0, 0, 45, 1.14360162228877e-07
0, 0, 46, 1.568416934105699e-07
0, 0, 47, 1.310420145728131e-07
0, 0, 48, 1.115555221531395e-07
0, 0, 49, 6.519707795860086e-08
0, 0, 50, 1.177961976850384e-07
0, 0, 51, 3.654412239484373e-07
0, 0, 52, 1.129309197267503e-07
0, 0, 53, 8.180618493724978e-08
0, 0, 54, 5.370288747030827e-08
0, 0, 55, 4.115757974432199e-07
0, 0, 56, 6.721449352653508e-08
0, 0, 57, 1.278360173273541e-07
0, 0, 58, 1.307659260874061e-07
0, 0, 59, 4.965770585840801e-07
0, 0, 60, 1.327708218923362e-07
0, 0, 61, 1.709058352616921e-07
0, 0, 62, 1.274465120104651e-07
0, 0, 63, 2.319218737056872e-07
0, 0, 64, 1.294139764240754e-07
0, 0, 65, 2.883973309053545e-07
0, 0, 66, 5.260089324110595e-07
0, 0, 67, 1.364393540370656e-07
0, 0, 68, 2.138500008186384e-07
0, 0, 69, 1.371041804532069e-07
0, 0, 70, 1.127682267565433e-07
0, 0, 71, 4.659032128984109e-07
0, 0, 72, 1.644563525360354e-07
0, 0, 73, 1.600340340246476e-07
0, 0, 74, 1.2743254274028e-07
0, 0, 75, 1.138248180154733e-07
0, 0, 76, 2.067255451265737e-07
0, 0, 77, 1.896066237350169e-07
0, 0, 78, 4.745499211367132e-07
0, 0, 79, 2.760327220130421e-07
0, 0, 80, 1.929297894776028e-07
0, 0, 81, 3.85547593850788e-07
0, 0, 82, 1.346968900861611e-07
0, 0, 83, 1.874777240118419e-07
0, 0, 84, 1.532511078039533e-07
0, 0, 85, 4.436521123807324e-07
0, 0, 86, 1.648897267614302e-07
0, 0, 87, 1.269501979095367e-07
0, 0, 88, 1.868902330670608e-07
0, 0, 89, 1.763377213137574e-07
0, 0, 90, 1.175493764549174e-07
0, 0, 91, 2.894457225011138e-07
0, 0, 92, 4.420257937454153e-07
0, 0, 93, 1.65187032052927e-07
0, 0, 94, 1.395371356238684e-07
0, 0, 95, 1.621519771788371e-07
0, 0, 96, 5.869686106052541e-07
0, 0, 97, 1.158552294100446e-07
0, 0, 98, 1.673132032919966e-07
0, 0, 99, 2.240210648096763e-07
0, 0, 100, 5.340900770534063e-07
0, 0, 101, 2.70765838195075e-07
0, 0, 102, 3.672289778933191e-07
0, 0, 103, 3.041074307930103e-07
0, 0, 104, 1.415595818343718e-07
0, 0, 105, 1.846303518959758e-07
0, 0, 106, 4.500707575516572e-07
0, 0, 107, 2.053432410775713e-07
0, 0, 108, 2.60573273180853e-07
0, 0, 109, 2.604234623504453e-07
0, 0, 110, 3.409554096833745e-07
0, 0, 111, 1.702617709042897e-07
0, 0, 112, 1.979178847477669e-07
0, 0, 113, 6.384322546182375e-07
0, 0, 114, 1.427740556891877e-07
0, 0, 115, 2.42927740146115e-07
0, 0, 116, 1.606423722932959e-07
0, 0, 117, 3.167850479712797e-07
0, 0, 118, 4.192467031316482e-07
0, 0, 119, 2.210015423997902e-07
0, 0, 120, 2.023738687739751e-07
0, 0, 121, 2.14414214383396e-07
0, 0, 122, 3.713903709012811e-07
0, 0, 123, 2.201271342983091e-07
0, 0, 124, 3.963675112572673e-07
0, 0, 125, 1.604400381438609e-07
0, 0, 126, 3.446006644480804e-07
0, 0, 127, 3.997942030764534e-07
0, 0, 128, 4.099656507605687e-07
0, 0, 129, 8.09567950454948e-07
0, 0, 130, 2.426533569632738e-07
0, 0, 131, 4.148649281887629e-07
0, 0, 132, 1.98924226424424e-07
0, 0, 133, 2.410962451904197e-07
0, 0, 134, 2.160224426006607e-07
0, 0, 135, 3.75229831206525e-07
0, 0, 136, 2.947469397440727e-07
0, 0, 137, 1.92835472034858e-07
0, 0, 138, 2.510692809210013e-07
0, 0, 139, 2.405313068720716e-07
0, 0, 140, 4.809987785847625e-07
0, 0, 141, 2.816681785589026e-07
0, 0, 142, 1.864161305320522e-07
0, 0, 143, 3.644702246674569e-07
0, 0, 144, 1.896778911714136e-07
0, 0, 145, 6.352371428874903e-07
0, 0, 146, 4.441857299752883e-07
0, 0, 147, 2.409445585271897e-07
0, 0, 148, 2.945964183709293e-07
0, 0, 149, 5.601442012448388e-07
0, 0, 150, 4.232270214288292e-07
0, 0, 151, 2.957999640784692e-07
0, 0, 152, 1.691940241244083e-07
0, 0, 153, 2.001498415893366e-07
0, 0, 154, 1.555409738784874e-07
0, 0, 155, 2.249214929861409e-07
0, 0, 156, 2.139234283049518e-07
0, 0, 157, 9.678783499111887e-07
0, 0, 158, 3.098271861290414e-07
0, 0, 159, 1.026841800921829e-06
0, 0, 160, 4.13179265024155e-07
0, 0, 161, 4.248696541253594e-07
0, 0, 162, 2.756947310444957e-07
0, 0, 163, 3.787343416661315e-07
0, 0, 164, 3.749993879864633e-07
0, 0, 165, 2.950372106624854e-07
0, 0, 166, 2.809316299590137e-07
0, 0, 167, 3.454299815075501e-07
0, 0, 168, 3.610120984376408e-07
0, 0, 169, 4.820535650651436e-07
0, 0, 170, 3.175162532897957e-07
0, 0, 171, 3.128870957880281e-07
0, 0, 172, 1.854296129977229e-07
0, 0, 173, 1.867092436214079e-07
0, 0, 174, 2.420810290004738e-07
0, 0, 175, 1.773980500274774e-07
0, 0, 176, 1.947003340774245e-07
0, 0, 177, 6.302950055214751e-07
0, 0, 178, 6.804889949307835e-07
0, 0, 179, 4.793522521140403e-07
0, 0, 180, 1.710807140398174e-07
0, 0, 181, 1.690100930318295e-07
0, 0, 182, 2.144636539469502e-07
0, 0, 183, 3.601331002300867e-07
0, 0, 184, 1.392180308812385e-07
0, 0, 185, 2.780550687475625e-07
0, 0, 186, 2.396212153144006e-07
0, 0, 187, 2.214017058577156e-07
0, 0, 188, 3.621635755735042e-07
0, 0, 189, 1.967241018974164e-07
0, 0, 190, 2.168803092672533e-07
0, 0, 191, 4.844697514272411e-07
0, 0, 192, 1.427606832749007e-07
0, 0, 193, 1.484550580244104e-07
0, 0, 194, 1.657585499970082e-07
0, 0, 195, 1.655133985423163e-07
0, 0, 196, 2.447121971727029e-07
0, 0, 197, 7.043860819067049e-07
0, 0, 198, 7.834817097318592e-07
0, 0, 199, 5.910058575864241e-07
0, 0, 200, 3.320430153053167e-07
0, 0, 201, 2.551639965986396e-07
0, 0, 202, 3.198965146111732e-07
0, 0, 203, 1.940734648542275e-07
0, 0, 204, 1.492334575914356e-07
0, 0, 205, 4.11058550753296e-07
0, 0, 206, 6.876805400679586e-07
0, 0, 207, 4.70604845759226e-07
0, 0, 208, 4.800822921424697e-07
0, 0, 209, 1.82821239036457e-07
0, 0, 210, 1.922667394183009e-07
0, 0, 211, 4.022052735308534e-07
0, 0, 212, 6.679113653262903e-07
0, 0, 213, 6.231448423932306e-07
0, 0, 214, 1.916756815489862e-07
0, 0, 215, 3.094455109931005e-07
0, 0, 216, 4.256654619894107e-07
0, 0, 217, 1.64881654995952e-07
0, 0, 218, 2.392517046700959e-07
0, 0, 219, 2.940263925665931e-07
0, 0, 220, 3.615663786149526e-07
0, 0, 221, 1.565205280940063e-07
0, 0, 222, 3.063470899178355e-07
0, 0, 223, 3.15136304607222e-07
0, 0, 224, 1.372202689253754e-07
0, 0, 225, 3.370656429524388e-07
0, 0, 226, 2.896267687901855e-07
0, 0, 227, 2.815435209413408e-07
0, 0, 228, 2.014791675719607e-07
0, 0, 229, 2.158662226747765e-07
0, 0, 230, 4.132084825414495e-07
0, 0, 231, 1.530309674535602e-07
0, 0, 232, 2.149386091332417e-07
0, 0, 233, 9.259044020382134e-08
0, 0, 234, 1.818578141410399e-07
0, 0, 235, 1.551629935647725e-07
0, 0, 236, 1.092112569267556e-07
0, 0, 237, 3.716151297794568e-07
0, 0, 238, 6.291436420724494e-07
0, 0, 239, 2.744732228165958e-07
0, 0, 240, 1.229673074476523e-07
0, 0, 241, 3.856438581806287e-07
0, 0, 242, 7.491398434922303e-08
0, 0, 243, 1.138275038670145e-07
0, 0, 244, 2.051696696980798e-07
0, 0, 245, 3.216923403215333e-07
0, 0, 246, 1.347067239976241e-07
0, 0, 247, 1.147226740272345e-07
0, 0, 248, 1.229820867365561e-07
0, 0, 249, 3.208239149898873e-07
0, 0, 250, 1.171133376942635e-07
0, 0, 251, 9.161285419168053e-08
0, 0, 252, 2.763277109352202e-07
0, 0, 253, 9.562311475974639e-08
0, 0, 254, 4.542308715826948e-07
0, 0, 255, 5.164532126400445e-07
0, 0, 256, 1.265455011889571e-07
0, 0, 257, 3.056450452731951e-07
0, 0, 258, 3.146170968193474e-07
0, 0, 259, 1.271633323085553e-07
0, 0, 260, 2.15819994764388e-07
0, 0, 261, 1.424842963615447e-07
0, 0, 262, 3.076187908845895e-07
0, 0, 263, 1.988895235172095e-07
0, 0, 264, 1.158053279937121e-07
0, 0, 265, 1.612037578979653e-07
0, 0, 266, 9.506564424555108e-08
0, 0, 267, 8.882172153334977e-08
0, 0, 268, 8.415329944000405e-08
0, 0, 269, 1.733057075625766e-07
0, 0, 270, 8.605866952393626e-08
0, 0, 271, 8.217426739065559e-08
0, 0, 272, 1.48684009104727e-07
0, 0, 273, 6.068494684541292e-08
0, 0, 274, 6.11860286880983e-08
0, 0, 275, 5.695632765423397e-08
0, 0, 276, 8.380194316259804e-08
0, 0, 277, 5.393106405904291e-08
0, 0, 278, 9.533263067851294e-08
0, 0, 279, 8.554257391324427e-08
0, 0, 280, 3.591472648167837e-07
0, 0, 281, 5.684420045781735e-08
0, 0, 282, 7.617702380002811e-08
0, 0, 283, 9.230902975332356e-08
0, 0, 284, 9.406091550090423e-08
0, 0, 285, 7.422455183814236e-08
0, 0, 286, 6.495451287946707e-08
0, 0, 287, 6.625004544957847e-08
0, 0, 288, 3.629713063446616e-08
0, 0, 289, 6.823439235859041e-08
0, 0, 290, 2.050526290986454e-07
0, 0, 291, 9.370808129460784e-08
0, 0, 292, 4.771792916358208e-08
0, 0, 293, 5.965539173757861e-08
0, 0, 294, 3.911002579570777e-07
0, 0, 295, 2.095629412224298e-07
0, 0, 296, 5.369414424194474e-08
0, 0, 297, 4.317268675890773e-08
0, 0, 298, 9.201850303952597e-08
0, 0, 299, 4.539887754617666e-08
1, 0, 0, 2.558484766268521e-07
1, 0, 1, 1.541411620564759e-07
1, 0, 2, 3.276078928138304e-07
1, 0, 3, 4.334074432676971e-08
1, 0, 4, 5.851091700037614e-08
1, 0, 5, 5.291767735116082e-08
1, 0, 6, 6.224220783224155e-08
1, 0, 7, 1.889622041062466e-07
1, 0, 8, 1.60395771331423e-07
1, 0, 9, 9.702336001282674e-08
1, 0, 10, 5.299013849935363e-08
1, 0, 11, 5.224804411341211e-08
1, 0, 12, 3.048916710213234e-07
1, 0, 13, 3.40696260536788e-07
1, 0, 14, 6.995206547344424e-08
1, 0, 15, 8.595780798259511e-08
1, 0, 16, 1.531680737798524e-07
1, 0, 17, 1.230907713534179e-07
1, 0, 18, 6.35216252931059e-08
1, 0, 19, 8.455590005951308e-08
1, 0, 20, 1.59216781980831e-07
1, 0, 21, 6.559949383699859e-08
1, 0, 22, 1.563885376754115e-07
1, 0, 23, 6.452754774954883e-08
1, 0, 24, 4.267867481644316e-08
1, 0, 25, 7.362531562193908e-08
1, 0, 26, 6.334314406331032e-08
1, 0, 27, 8.708232002163641e-08
1, 0, 28, 2.242902041871275e-07
1, 0, 29, 2.222297013076968e-07
1, 0, 30, 6.092218995945586e-08
1, 0, 31, 1.855343043644098e-07
1, 0, 32, 2.047427187790163e-07
1, 0, 33, 2.734882968979946e-07
1, 0, 34, 1.557773998683842e-07
1, 0, 35, 4.156630950546969e-07
1, 0, 36, 8.927275274572821e-08
1, 0, 37, 8.725908173801145e-08
1, 0, 38, 4.900281851405452e-07
1, 0, 39, 3.299569186765439e-07
1, 0, 40, 6.969214894070319e-08
1, 0, 41, 8.308770560461198e-08
1, 0, 42, 1.588009013175906e-07
1, 0, 43, 4.653027474432747e-07
1, 0, 44, 9.375462894922748e-08
1, 0, 45, 1.039357826471132e-07
1, 0, 46, 8.161205045098541e-08
1, 0, 47, 1.035106720337353e-07
1, 0, 48, 9.751951068892595e-08
1, 0, 49, 8.180084876130422e-08
1, 0, 50, 1.362983113040173e-07
1, 0, 51, 8.53118038435241e-08
1, 0, 52, 1.449865010272333e-07
1, 0, 53, 8.106571414145947e-08
1, 0, 54, 6.631751148233889e-08
1, 0, 55, 8.200004941727457e-08
1, 0, 56, 1.083060396922519e-07
1, 0, 57, 4.161461220064666e-07
1, 0, 58, 1.114096832566247e-07
1, 0, 59, 1.792259638477844e-07
1, 0, 60, 1.51759024902276e-07
1, 0, 61, 9.363958497488056e-08
1, 0, 62, 9.594320715677895e-08
1, 0, 63, 4.037329119910282e-07
1, 0, 64, 1.746971065585967e-07
1, 0, 65, 1.456626108620185e-07
1, 0, 66, 1.720638067581604e-07
1, 0, 67, 1.97311322835958e-07
1, 0, 68, 1.249000121106292e-07
1, 0, 69, 2.000261645207502e-07
1, 0, 70, 1.687100024128085e-07
1, 0, 71, 4.15816828081006e-07
1, 0, 72, 5.777278602181468e-07
1, 0, 73, 1.940332907679476e-07
1, 0, 74, 1.529337083638893e-07
1, 0, 75, 1.657014507827625e-07
1, 0, 76, 1.281573389633195e-07
1, 0, 77, 1.58269969574576e-07
1, 0, 78, 9.426701694792428e-07
1, 0, 79, 6.314029405984911e-07
1, 0, 80, 4.997733640266233e-07
1, 0, 81, 3.749330232949433e-07
1, 0, 82, 2.275023831543876e-07
1, 0, 83, 3.369655132701155e-07
1, 0, 84, 2.145075796988749e-07
1, 0, 85, 1.285452242427709e-07
1, 0, 86, 1.624619301310304e-07
1, 0, 87, 3.127312311335118e-07
1, 0, 88, 2.3104178126232e-07
1, 0, 89, 5.816079919895856e-07
1, 0, 90, 1.606031929668461e-07
1, 0, 91, 1.486552463347834e-07
1, 0, 92, 1.747427091913778e-07
1, 0, 93, 2.80314822020955e-07
1, 0, 94, 3.084420825416601e-07
1, 0, 95, 3.339226850584964e-07
1, 0, 96, 6.025729248904099e-07
1, 0, 97, 9.547711954382976e-08
1, 0, 98, 3.949012636894622e-07
1, 0, 99, 4.152392136802519e-07
1, 0, 100, 1.565348384247045e-07
1, 0, 101, 4.152321650963131e-07
1, 0, 102, 1.656519543757895e-07
1, 0, 103, 1.393496518176107e-07
1, 0, 104, 1.540844607461622e-07
1, 0, 105, 2.665008196345298e-07
1, 0, 106, 1.812643546372783e-07
1, 0, 107, 1.792507902109719e-07
1, 0, 108, 1.595555687572414e-07
1, 0, 109, 2.047062679366718e-07
1, 0, 110, 1.848328992082315e-07
1, 0, 111, 1.4075681065151e-07
1, 0, 112, 2.242892520598616e-07
1, 0, 113, 1.180967856839743e-07
1, 0, 114, 3.355189619469456e-07
1, 0, 115, 3.873245759677957e-07
1, 0, 116, 3.138073623176751e-07
1, 0, 117, 1.730511769437726e-07
1, 0, 118, 2.14194415093516e-07
1, 0, 119, 1.913998914915283e-07
1, 0, 120, 1.876314001947321e-07
1, 0, 121, 5.202884381105832e-07
1, 0, 122, 2.039861470848336e-07
1, 0, 123, 6.799609764129855e-07
1, 0, 124, 3.224928377676406e-07
1, 0, 125, 2.535410317250353e-07
1, 0, 126, 2.189752734693684e-07
1, 0, 127, 4.063016660893481e-07
1, 0, 128, 4.12637973568053e-07
1, 0, 129, 5.327495387064118e-07
1, 0, 130, 7.172166078817099e-07
1, 0, 131, 5.473594910654356e-07
1, 0, 132, 3.19159880746156e-07
1, 0, 133, 9.393243658450956e-07
1, 0, 134, 4.527836097167892e-07
1, 0, 135, 7.072080734360497e-07
1, 0, 136, 1.992001585904291e-07
1, 0, 137, 1.398911706473882e-07
1, 0, 138, 1.770513051724265e-07
1, 0, 139, 2.286823104213909e-07
1, 0, 140, 2.683976561002055e-07
1, 0, 141, 3.759166986583296e-07
1, 0, 142, 3.429820765177283e-07
1, 0, 143, 2.958273626063601e-07
1, 0, 144, 3.829348713679792e-07
1, 0, 145, 1.442086983161062e-07
1, 0, 146, 2.416670383809105e-07
1, 0, 147, 2.290180844966017e-07
1, 0, 148, 6.135182957223151e-07
1, 0, 149, 2.017798550468797e-07
1, 0, 150, 4.945625846630719e-07
1, 0, 151, 1.968920599892954e-07
1, 0, 152, 7.548674716417736e-07
1, 0, 153, 2.169364989867972e-07
1, 0, 154, 1.556252158252391e-07
1, 0, 155, 1.672851084322247e-07
1, 0, 156, 1.80511307235065e-07
1, 0, 157, 9.538146059639985e-07
1, 0, 158, 3.534922541348351e-07
1, 0, 159, 7.65633046739822e-07
1, 0, 160, 3.205935286132444e-07
1, 0, 161, 6.992916041781427e-07
1, 0, 162, 2.189817394082638e-07
1, 0, 163, 2.793987050608848e-07
1, 0, 164, 3.750768655663705e-07
1, 0, 165, 3.721737584783114e-07
1, 0, 166, 4.03601291054656e-07
1, 0, 167, 8.324043960783456e-07
1, 0, 168, 2.094900253268861e-07
1, 0, 169, 2.699241008485842e-07
1, 0, 170, 4.136940674470679e-07
1, 0, 171, 3.026052297627757e-07
1, 0, 172, 3.547471578713157e-07
1, 0, 173, 4.153437203058274e-07
1, 0, 174, 4.336331471677113e-07
1, 0, 175, 2.166387389479496e-07
1, 0, 176, 3.467300473403157e-07
1, 0, 177, 1.649904390887968e-07
1, 0, 178, 1.528971154129977e-07
1, 0, 179, 3.079570660702302e-07
1, 0, 180, 3.091636244789697e-07
1, 0, 181, 4.014914907202183e-07
1, 0, 182, 3.806819677265594e-07
1, 0, 183, 5.450119715533219e-07
1, 0, 184, 3.96114444356499e-07
1, 0, 185, 5.335954824658984e-07
1, 0, 186, 5.251230845715327e-07
1, 0, 187, 2.859275127775618e-07
1, 0, 188, 1.923706491879784e-07
1, 0, 189, 4.035179870243155e-07
1, 0, 190, 3.397192358534085e-07
1, 0, 191, 4.583175154948549e-07
1, 0, 192, 1.409752883319015e-07
1, 0, 193, 1.74282192233477e-07
1, 0, 194, 1.270116598561799e-07
1, 0, 195, 2.775471159566223e-07
1, 0, 196, 1.885662328504623e-07
1, 0, 197, 3.095523481988494e-07
1, 0, 198, 3.551666054590896e-07
1, 0, 199, 5.21815877618792e-07
1, 0, 200, 1.414764057017237e-07
1, 0, 201, 2.910954606250016e-07
1, 0, 202, 4.042864532038948e-07
1, 0, 203, 4.158519288921525e-07
1, 0, 204, 2.973683876916766e-07
1, 0, 205, 2.138790904382404e-07
1, 0, 206, 3.091575990765705e-07
1, 0, 207, 1.427638238737927e-07
1, 0, 208, 1.717167918968698e-07
1, 0, 209, 3.149767167087703e-07
1, 0, 210, 1.541195473464541e-07
1, 0, 211, 4.217584432808508e-07
1, 0, 212, 1.611102931065034e-07
1, 0, 213, 2.274097141707898e-07
1, 0, 214, 3.660120739823469e-07
1, 0, 215, 4.562121773687977e-07
1, 0, 216, 2.636558065205463e-07
1, 0, 217, 3.6809765902035e-07
1, 0, 218, 1.876958179991561e-07
1, 0, 219, 3.190760651250457e-07
1, 0, 220, 2.609242528706091e-07
1, 0, 221, 4.282833003799169e-07
1, 0, 222, 3.474248728707607e-07
1, 0, 223, 1.982287756163714e-07
1, 0, 224, 3.343874368511024e-07
1, 0, 225, 2.149832454279021e-07
1, 0, 226, 1.59438030777892e-07
1, 0, 227, 2.396086529188324e-07
1, 0, 228, 2.655027060427528e-07
1, 0, 229, 4.374312538857339e-07
1, 0, 230, 1.448717199536986e-07
1, 0, 231, 3.618015114170703e-07
1, 0, 232, 2.592022667613492e-07
1, 0, 233, 4.200113892238733e-07
1, 0, 234, 1.406326930464274e-07
1, 0, 235, 1.231190935868653e-07
1, 0, 236, 1.327950656104804e-07
1, 0, 237, 3.214027515241469e-07
1, 0, 238, 1.218525653712277e-07
1, 0, 239, 1.030777809774008e-07
1, 0, 240, 8.799359818567609e-08
1, 0, 241, 2.910408909428952e-07
1, 0, 242, 2.268684085038331e-07
1, 0, 243, 1.086837073671632e-07
1, 0, 244, 6.311752258625347e-07
1, 0, 245, 1.298018048601079e-07
1, 0, 246, 7.814806934902663e-08
1, 0, 247, 4.435150344761496e-07
1, 0, 248, 9.558108615692618e-08
1, 0, 249, 1.319712055192213e-07
1, 0, 250, 2.861803238829452e-07
1, 0, 251, 1.193707959146195e-07
1, 0, 252, 1.24354485819822e-07
1, 0, 253, 1.144906320860173e-07
1, 0, 254, 6.579772104942094e-08
1, 0, 255, 1.519496066748616e-07
1, 0, 256, 1.475953439467048e-07
1, 0, 257, 1.16095641544689e-07
1, 0, 258, 2.432678058994497e-07
1, 0, 259, 1.100236062256954e-07
1, 0, 260, 1.568587464362281e-07
1, 0, 261, 1.795882127453297e-07
1, 0, 262, 1.990833311538154e-07
1, 0, 263, 9.632724129460257e-08
1, 0, 264, 7.761691733776388e-08
1, 0, 265, 1.313594140128771e-07
1, 0, 266, 4.876995163272113e-08
1, 0, 267, 5.198614303481008e-07
1, 0, 268, 2.185610270544203e-07
1, 0, 269, 9.509773235549801e-08
1, 0, 270, 5.005790981726932e-08
1, 0, 271, 2.232518312439424e-07
1, 0, 272, 2.482761374267284e-07
1, 0, 273, 1.22703511351574e-07
1, 0, 274, 8.05803495040891e-08
1, 0, 275, 9.521309607407602e-08
1, 0, 276, 2.981293221182568e-07
1, 0, 277, 1.760481893597898e-07
1, 0, 278, 1.131369700146934e-07
1, 0, 279, 2.128779357235544e-07
1, 0, 280, 4.131274167207266e-08
1, 0, 281, 5.971659078340963e-08
1, 0, 282, 1.080098215311409e-07
1, 0, 283, 7.030540416508302e-08
1, 0, 284, 8.189231692767862e-08
1, 0, 285, 6.211469383288204e-08
1, 0, 286, 1.596174001861073e-07
1, 0, 287, 3.735718578923297e-08
1, 0, 288, 6.955447418022231e-08
1, 0, 289, 2.255147109053723e-07
1, 0, 290, 3.500112555343549e-08
1, 0, 291, 2.349026999581838e-07
1, 0, 292, 3.96940507130239e-08
1, 0, 293, 6.56497505246989e-08
1, 0, 294, 3.318242818295403e-07
1, 0, 295, 9.12437201350258e-08
1, 0, 296, 3.465628495291639e-08
1, 0, 297, 8.764303061070677e-08
1, 0, 298, 6.617865011548929e-08
1, 0, 299, 1.841573151750708e-07
2, 0, 0, 4.977988510290743e-07
2, 0, 1, 4.828848076954273e-08
2, 0, 2, 5.00836883077227e-08
2, 0, 3, 2.597985258034896e-07
2, 0, 4, 9.954557356195437e-08
2, 0, 5, 1.129527049670287e-07
2, 0, 6, 5.545320647115659e-08
2, 0, 7, 6.239610428337983e-08
2, 0, 8, 7.962507453385115e-08
2, 0, 9, 6.311525879709734e-08
2, 0, 10, 7.972152360480322e-08
2, 0, 11, 1.297217266937878e-07
2, 0, 12, 9.123419175693925e-08
2, 0, 13, 6.137525332405858e-08
2, 0, 14, 7.110028121815049e-08
2, 0, 15, 6.84863081801268e-08
2, 0, 16, 7.618002939580037e-08
2, 0, 17, 4.276218135146337e-08
2, 0, 18, 5.722724338852458e-08
2, 0, 19, 1.043445649884234e-07
2, 0, 20, 3.185330683663778e-07
2, 0, 21, 7.98525121581406e-08
2, 0, 22, 1.240594968976438e-07
2, 0, 23, 2.620784584905778e-07
2, 0, 24, 8.883456814601232e-08
2, 0, 25, 1.483572873439698e-07
2, 0, 26, 3.957618233130233e-08
2, 0, 27, 8.066543699669637e-08
2, 0, 28, 5.151464961272723e-07
2, 0, 29, 1.050439664140868e-07
2, 0, 30, 4.590037292473426e-07
2, 0, 31, 5.338191044756968e-08
2, 0, 32, 3.036855957816442e-07
2, 0, 33, 1.143801569014613e-06
2, 0, 34, 4.057416447267315e-07
2, 0, 35, 9.729185990181577e-08
2, 0, 36, 9.365834330310463e-08
2, 0, 37, 8.268084883411575e-08
2, 0, 38, 1.192093748159095e-07
2, 0, 39, 7.063510452098853e-07
2, 0, 40, 3.135210420168733e-07
2, 0, 41, 8.355700487072681e-08
2, 0, 42, 7.277300539954012e-08
2, 0, 43, 2.026040988312161e-07
2, 0, 44, 2.729347841068375e-07
2, 0, 45, 2.189788403939019e-07
2, 0, 46, 1.243468261691305e-07
2, 0, 47, 9.331250794275547e-08
2, 0, 48, 8.658017236484739e-08
2, 0, 49, 4.255676913089701e-07
2, 0, 50, 1.016343418314136e-07
2, 0, 51, 2.23696446255417e-07
2, 0, 52, 5.420832280833565e-07
2, 0, 53, 2.485035111021716e-07
2, 0, 54, 6.403719510217343e-08
2, 0, 55, 5.739025255024899e-07
2, 0, 56, 1.163680067861605e-07
2, 0, 57, 1.191055289950782e-07
2, 0, 58, 1.665693645236388e-07
2, 0, 59, 1.519781420711297e-07
2, 0, 60, 1.079218492350265e-07
2, 0, 61, 1.228337396241841e-07
2, 0, 62, 7.577461502705773e-08
2, 0, 63, 2.466306909809646e-07
2, 0, 64, 3.101091579083004e-07
2, 0, 65, 2.436138686334743e-07
2, 0, 66, 1.034696666124546e-07
2, 0, 67, 1.257750739114272e-07
2, 0, 68, 1.523664110436584e-07
2, 0, 69, 3.022122427864815e-07
2, 0, 70, 1.35535884737692e-07
2, 0, 71, 2.266732508360292e-07
2, 0, 72, 1.242466822759525e-07
2, 0, 73, 4.401552189392532e-07
2, 0, 74, 2.936524765573267e-07
2, 0, 75, 1.359328649641611e-07
2, 0, 76, 1.772266813304668e-07
2, 0, 77, 2.608614693144773e-07
2, 0, 78, 1.212791431726146e-07
2, 0, 79, 2.556878371251514e-07
2, 0, 80, 2.263514886635676e-07
2, 0, 81, 1.706148253788342e-07
2, 0, 82, 1.157638820359352e-07
2, 0, 83, 1.732972236823116e-07
2, 0, 84, 2.377637002837218e-07
2, 0, 85, 2.70574730620865e-07
2, 0, 86, 1.548772843307233e-07
2, 0, 87, 2.42591426058425e-07
2, 0, 88, 2.8165433718641e-07
2, 0, 89, 1.942990621728313e-07
2, 0, 90, 3.262872780851467e-07
2, 0, 91, 1.681922014995507e-07
2, 0, 92, 2.134115106855461e-07
2, 0, 93, 2.212924954392292e-07
2, 0, 94, 1.661717874412716e-07
2, 0, 95, 4.580971904033504e-07
2, 0, 96, 5.108102527628944e-07
2, 0, 97, 1.600769365950327e-07
2, 0, 98, 1.871980970236109e-07
2, 0, 99, 2.020669285229815e-07
2, 0, 100, 4.354103566583944e-07
2, 0, 101, 2.511119987502752e-07
2, 0, 102, 7.146946927605313e-07
2, 0, 103, 4.287371382361016e-07
2, 0, 104, 3.104588301994227e-07
2, 0, 105, 3.707637858951784e-07
2, 0, 106, 2.500956668427534e-07
2, 0, 107, 2.18362544046613e-07
2, 0, 108, 1.528725306343404e-07
2, 0, 109, 2.05385418894366e-07
2, 0, 110, 1.798162116983804e-07
2, 0, 111, 3.326962598748651e-07
2, 0, 112, 2.040131903413567e-07
2, 0, 113, 1.926154169495931e-07
2, 0, 114, 1.306957528868224e-07
2, 0, 115, 2.080705172602393e-07
2, 0, 116, 1.798159559029955e-07
2, 0, 117, 2.006701862455884e-07
2, 0, 118, 3.81700203888613e-07
2, 0, 119, 2.062527784119084e-07
2, 0, 120, 1.451195572599318e-07
2, 0, 121, 9.065686299436493e-07
2, 0, 122, 3.98830792391891e-07
2, 0, 123, 1.866510217496398e-07
2, 0, 124, 3.312488274787029e-07
2, 0, 125, 2.165163976997064e-07
2, 0, 126, 7.348363055825757e-07
2, 0, 127, 5.164465619600378e-07
2, 0, 128, 1.65300050980477e-07
2, 0, 129, 2.296293075687572e-07
2, 0, 130, 4.731674323465995e-07
2, 0, 131, 3.694234180784406e-07
2, 0, 132, 3.351735813339474e-07
2, 0, 133, 2.016609101929134e-07
2, 0, 134, 6.771334142285923e-07
2, 0, 135, 2.490306769686867e-07
2, 0, 136, 9.460810019845667e-07
2, 0, 137, 5.90700437896885e-07
2, 0, 138, 1.867196317562048e-07
2, 0, 139, 8.668798159305879e-07
2, 0, 140, 3.646466950613103e-07
2, 0, 141, 3.881652048676187e-07
2, 0, 142, 4.117952414617321e-07
2, 0, 143, 2.261161711203385e-07
2, 0, 144, 3.068390981297853e-07
2, 0, 145, 5.140383905199997e-07
2, 0, 146, 3.317237542432849e-07
2, 0, 147, 4.095666668035847e-07
2, 0, 148, 2.12634702734249e-07
2, 0, 149, 2.047901688229103e-07
2, 0, 150, 3.686476759412471e-07
2, 0, 151, 2.299106540704088e-07
2, 0, 152, 3.750039354599721e-07
2, 0, 153, 2.769234868083004e-07
2, 0, 154, 2.43593376580975e-07
2, 0, 155, 5.062454420112772e-07
2, 0, 156, 6.068991638130683e-07
2, 0, 157, 2.084241685906818e-07
2, 0, 158, 2.144098090184343e-07
2, 0, 159, 1.330598706772435e-06
2, 0, 160, 2.044299804992988e-07
2, 0, 161, 1.980117048105967e-07
2, 0, 162, 2.752775287717668e-07
2, 0, 163, 2.073697942250874e-07
2, 0, 164, 5.897474011362647e-07
2, 0, 165, 2.400300331828475e-07
2, 0, 166, 2.267059358018741e-07
2, 0, 167, 1.474649593546928e-07
2, 0, 168, 6.530018481498701e-07
2, 0, 169, 4.621063851573126e-07
2, 0, 170, 5.255121777736349e-07
2, 0, 171, 5.580735091825773e-07
2, 0, 172, 1.798735667080109e-07
2, 0, 173, 5.450560820463579e-07
2, 0, 174, 2.533207918986591e-07
2, 0, 175, 2.197548951698991e-07
2, 0, 176, 1.908481124246464e-07
2, 0, 177, 1.736127615004079e-07
2, 0, 178, 2.25954579491372e-07
2, 0, 179, 2.869187198939471e-07
2, 0, 180, 3.226278124657256e-07
2, 0, 181, 2.025338687872136e-07
2, 0, 182, 5.19911168339604e-07
2, 0, 183, 6.192616979205923e-07
2, 0, 184, 3.348185941831616e-07
2, 0, 185, 2.387476172316383e-07
2, 0, 186, 1.869559156375544e-07
2, 0, 187, 4.984407269148505e-07
2, 0, 188, 2.49856526579606e-07
2, 0, 189, 4.484332407628244e-07
2, 0, 190, 4.042242096602422e-07
2, 0, 191, 4.870163934356242e-07
2, 0, 192, 1.735647430223253e-07
2, 0, 193, 5.746209694734716e-07
2, 0, 194, 1.652069556712377e-07
2, 0, 195, 1.425831470669436e-07
2, 0, 196, 1.834138600997903e-07
2, 0, 197, 1.701097573914012e-07
2, 0, 198, 4.471885404200293e-07
2, 0, 199, 2.019112059770123e-07
2, 0, 200, 1.539313956300248e-07
2, 0, 201, 1.717755537811172e-07
2, 0, 202, 4.041539511945302e-07
2, 0, 203, 2.366205933412857e-07
2, 0, 204, 2.470852109581756e-07
2, 0, 205, 4.949094432049606e-07
2, 0, 206, 1.630958479381661e-07
2, 0, 207, 2.762238295872521e-07
2, 0, 208, 3.246555877467472e-07
2, 0, 209, 3.867574775995308e-07
2, 0, 210, 3.51297046563559e-07
2, 0, 211, 3.480897134977567e-07
2, 0, 212, 3.411858244817267e-07
2, 0, 213, 2.945754431493697e-07
2, 0, 214, 8.612230999460735e-07
2, 0, 215, 2.040375051137744e-07
2, 0, 216, 3.40087154881985e-07
2, 0, 217, 1.396799405029014e-07
2, 0, 218, 2.341924982829369e-07
2, 0, 219, 3.007040163538477e-07
2, 0, 220, 2.648195049914648e-07
2, 0, 221, 3.380604880476312e-07
2, 0, 222, 1.47550224482984e-07
2, 0, 223, 1.94194143432469e-07
2, 0, 224, 1.560454165883129e-07
2, 0, 225, 2.279623032563904e-07
2, 0, 226, 2.060085506627729e-07
2, 0, 227, 3.319189545436529e-07
2, 0, 228, 1.388729913287534e-07
2, 0, 229, 2.779985379675054e-07
2, 0, 230, 4.163952382896241e-07
2, 0, 231, 3.121195106814412e-07
2, 0, 232, 2.737890838488966e-07
2, 0, 233, 2.641644130108034e-07
2, 0, 234, 1.349225726698933e-07
2, 0, 235, 6.644244763265306e-07
2, 0, 236, 1.277076364658569e-07
2, 0, 237, 2.435572810099984e-07
2, 0, 238, 1.387397929875078e-07
2, 0, 239, 2.301036090557318e-07
2, 0, 240, 1.162444931424034e-07
2, 0, 241, 1.242814988700047e-07
2, 0, 242, 6.841696631454397e-07
2, 0, 243, 1.209159421478034e-07
2, 0, 244, 2.186744154641929e-07
2, 0, 245, 1.793997483900966e-07
2, 0, 246, 1.453035594067842e-07
2, 0, 247, 3.5133891174155e-07
2, 0, 248, 1.294273346275077e-07
2, 0, 249, 1.066637054236708e-07
2, 0, 250, 7.4382846548815e-08
2, 0, 251, 1.273103862331482e-07
2, 0, 252, 1.012097001762413e-07
2, 0, 253, 6.383294959277919e-08
2, 0, 254, 6.467114843644595e-08
2, 0, 255, 4.012096610495064e-07
2, 0, 256, 1.28349569195052e-07
2, 0, 257, 8.50301944410603e-08
2, 0, 258, 1.069124664354604e-07
2, 0, 259, 1.298443379482705e-07
2, 0, 260, 2.189087382475918e-07
2, 0, 261, 3.404953190511151e-07
2, 0, 262, 2.881874934246298e-07
2, 0, 263, 2.945890287264774e-07
2, 0, 264, 4.522433414422267e-07
2, 0, 265, 1.779302465365618e-07
2, 0, 266, 8.492262537629358e-08
2, 0, 267, 2.997394403791986e-07
2, 0, 268, 3.184147203683096e-07
2, 0, 269, 6.604043534252924e-08
2, 0, 270, 9.302479497819149e-08
2, 0, 271, 4.629012266832433e-07
2, 0, 272, 3.916091770861385e-07
2, 0, 273, 9.579151338812153e-08
2, 0, 274, 6.822568821007735e-08
2, 0, 275, 2.366972040590554e-07
2, 0, 276, 2.321698957530316e-07
2, 0, 277, 1.627326611242097e-07
2, 0, 278, 1.386164996119987e-07
2, 0, 279, 2.486963239789475e-07
2, 0, 280, 7.04145719510052e-08
2, 0, 281, 3.848540472972672e-07
2, 0, 282, 5.406271696983822e-08
2, 0, 283, 3.503130301396595e-07
2, 0, 284, 9.528035604944307e-08
2, 0, 285, 1.128025672869626e-07
2, 0, 286, 6.502986593659443e-08
2, 0, 287, 7.899075171735603e-08
2, 0, 288, 3.040568685719336e-07
2, 0, 289, 6.351048398300918e-08
2, 0, 290, 1.172478789612796e-07
2, 0, 291, 2.641881451381778e-07
2, 0, 292, 1.860052378788168e-07
2, 0, 293, 1.936410143343892e-07
2, 0, 294, 6.88397108206118e-08
2, 0, 295, 2.370786233996114e-07
2, 0, 296, 2.207272018495132e-07
2, 0, 297, 1.167668628454521e-07
2, 0, 298, 8.019241448664616e-08
2, 0, 299, 6.060715662670191e-08
3, 0, 0, 5.641065570216597e-08
3, 0, 1, 5.410580072862103e-08
3, 0, 2, 6.482360248583063e-08
3, 0, 3, 4.868718761485979e-08
3, 0, 4, 3.015543654782959e-07
3, 0, 5, 5.964138694025678e-08
3, 0, 6, 8.670092199736246e-08
3, 0, 7, 7.852234773508826e-08
3, 0, 8, 5.259832036585976e-08
3, 0, 9, 6.796338425374415e-08
3, 0, 10, 1.079929958791581e-07
3, 0, 11, 6.493486637282331e-08
3, 0, 12, 9.424216074194192e-08
3, 0, 13, 2.309892295215832e-07
