# TOPAS Version: 3.9
# Parameter File: data/topas/input/plan_1c/main_2GySOBP.txt
# Results for scorer: Scoring_HadronDLET_ZBox
# Scored in component: ScoringYBox
# X in 1 bin  of 2 cm
# Y in 300 bins of 0.0666667 cm
# Z in 1 bin  of 2 cm
# myHadronLET ( MeV/mm/(g/cm3) ) : Sum   
0, 0, 0, 156.2886657714844
0, 1, 0, 108.9335098266602
0, 2, 0, 94.16088104248047
0, 3, 0, 113.3232269287109
0, 4, 0, 141.6820220947266
0, 5, 0, 145.0879211425781
0, 6, 0, 107.8047027587891
0, 7, 0, 128.8299102783203
0, 8, 0, 115.4101104736328
0, 9, 0, 102.8656539916992
0, 10, 0, 126.3017807006836
0, 11, 0, 133.1870422363281
0, 12, 0, 120.6568603515625
0, 13, 0, 124.4308013916016
0, 14, 0, 125.0009994506836
0, 15, 0, 136.3865814208984
0, 16, 0, 90.36740875244141
0, 17, 0, 105.6802062988281
0, 18, 0, 120.273681640625
0, 19, 0, 118.9556503295898
0, 20, 0, 130.2714385986328
0, 21, 0, 99.83407592773438
0, 22, 0, 141.1387939453125
0, 23, 0, 93.60771942138672
0, 24, 0, 121.1019592285156
0, 25, 0, 111.7627639770508
0, 26, 0, 168.6494445800781
0, 27, 0, 136.5972137451172
0, 28, 0, 118.2641143798828
0, 29, 0, 126.9211730957031
0, 30, 0, 114.8711929321289
0, 31, 0, 96.79816436767578
0, 32, 0, 133.9810180664062
0, 33, 0, 154.5860900878906
0, 34, 0, 118.8043823242188
0, 35, 0, 148.8748016357422
0, 36, 0, 135.2899017333984
0, 37, 0, 141.3605041503906
0, 38, 0, 111.2657852172852
0, 39, 0, 114.3448257446289
0, 40, 0, 108.0777740478516
0, 41, 0, 132.5540161132812
0, 42, 0, 122.6473922729492
0, 43, 0, 116.1163864135742
0, 44, 0, 114.2539443969727
0, 45, 0, 135.1345520019531
0, 46, 0, 133.96875
0, 47, 0, 110.3810501098633
0, 48, 0, 91.58038330078125
0, 49, 0, 119.0033340454102
0, 50, 0, 92.28903961181641
0, 51, 0, 107.4218368530273
0, 52, 0, 101.9632415771484
0, 53, 0, 105.4078674316406
0, 54, 0, 108.0238342285156
0, 55, 0, 103.6191024780273
0, 56, 0, 81.6031494140625
0, 57, 0, 49.11507415771484
0, 58, 0, 33.50220489501953
0, 59, 0, 26.17727470397949
0, 60, 0, 19.43279647827148
0, 61, 0, 16.26902770996094
0, 62, 0, 14.38720417022705
0, 63, 0, 13.3838586807251
0, 64, 0, 12.81224822998047
0, 65, 0, 12.11738967895508
0, 66, 0, 11.40554237365723
0, 67, 0, 10.9323263168335
0, 68, 0, 10.37206649780273
0, 69, 0, 9.88629150390625
0, 70, 0, 9.413661956787109
0, 71, 0, 8.871124267578125
0, 72, 0, 8.337910652160645
0, 73, 0, 7.853326797485352
0, 74, 0, 7.50111198425293
0, 75, 0, 7.200495719909668
0, 76, 0, 7.049264907836914
0, 77, 0, 6.846936225891113
0, 78, 0, 6.749958992004395
0, 79, 0, 6.510054588317871
0, 80, 0, 6.351424217224121
0, 81, 0, 6.452153205871582
0, 82, 0, 6.420166492462158
0, 83, 0, 6.432991027832031
0, 84, 0, 6.20400333404541
0, 85, 0, 6.522014141082764
0, 86, 0, 6.46049976348877
0, 87, 0, 6.517309188842773
0, 88, 0, 6.457971096038818
0, 89, 0, 6.460558414459229
0, 90, 0, 6.379514217376709
0, 91, 0, 6.595244407653809
0, 92, 0, 6.715167045593262
0, 93, 0, 6.531529903411865
0, 94, 0, 6.459763526916504
0, 95, 0, 6.563698291778564
0, 96, 0, 6.488538265228271
0, 97, 0, 6.515050888061523
0, 98, 0, 6.283851146697998
0, 99, 0, 6.275356292724609
0, 100, 0, 6.240360736846924
0, 101, 0, 6.367271423339844
0, 102, 0, 6.162539482116699
0, 103, 0, 6.133714199066162
0, 104, 0, 6.175394058227539
0, 105, 0, 6.175071239471436
0, 106, 0, 6.111528873443604
0, 107, 0, 6.202682971954346
0, 108, 0, 6.392576694488525
0, 109, 0, 6.039166927337646
0, 110, 0, 6.454455852508545
0, 111, 0, 6.028663158416748
0, 112, 0, 5.982284069061279
0, 113, 0, 6.263735771179199
0, 114, 0, 5.953538417816162
0, 115, 0, 6.137370109558105
0, 116, 0, 6.174069881439209
0, 117, 0, 6.33998441696167
0, 118, 0, 6.261005878448486
0, 119, 0, 6.100117683410645
0, 120, 0, 5.998944759368896
0, 121, 0, 6.000464916229248
0, 122, 0, 6.256633758544922
0, 123, 0, 6.017646312713623
0, 124, 0, 6.077148914337158
0, 125, 0, 5.961153984069824
0, 126, 0, 6.228249073028564
0, 127, 0, 6.212661743164062
0, 128, 0, 6.175212383270264
0, 129, 0, 6.038795948028564
0, 130, 0, 5.981723308563232
0, 131, 0, 6.132719039916992
0, 132, 0, 5.864028930664062
0, 133, 0, 5.883601665496826
0, 134, 0, 6.067594528198242
0, 135, 0, 5.959142208099365
0, 136, 0, 5.966570854187012
0, 137, 0, 6.168363094329834
0, 138, 0, 6.157933235168457
0, 139, 0, 6.092531681060791
0, 140, 0, 5.994582653045654
0, 141, 0, 6.002939701080322
0, 142, 0, 5.820054531097412
0, 143, 0, 6.037356376647949
0, 144, 0, 6.240421772003174
0, 145, 0, 5.962052822113037
0, 146, 0, 5.875114917755127
0, 147, 0, 6.213441371917725
0, 148, 0, 6.164986610412598
0, 149, 0, 6.21360969543457
0, 150, 0, 6.22606372833252
0, 151, 0, 6.3634033203125
0, 152, 0, 6.102034091949463
0, 153, 0, 6.001996994018555
0, 154, 0, 6.105917930603027
0, 155, 0, 6.053958892822266
0, 156, 0, 6.311657428741455
0, 157, 0, 6.242144107818604
0, 158, 0, 6.232791423797607
0, 159, 0, 5.969790935516357
0, 160, 0, 6.011672973632812
0, 161, 0, 6.319079399108887
0, 162, 0, 6.084925651550293
0, 163, 0, 6.290571212768555
0, 164, 0, 6.129948139190674
0, 165, 0, 6.265334129333496
0, 166, 0, 6.291679859161377
0, 167, 0, 6.218451976776123
0, 168, 0, 6.13322639465332
0, 169, 0, 5.79327917098999
0, 170, 0, 6.419561862945557
0, 171, 0, 6.211041450500488
0, 172, 0, 5.987338542938232
0, 173, 0, 5.996993064880371
0, 174, 0, 6.14400577545166
0, 175, 0, 5.898194313049316
0, 176, 0, 6.036739826202393
0, 177, 0, 6.172348499298096
0, 178, 0, 6.245575904846191
0, 179, 0, 6.243075847625732
0, 180, 0, 6.179539203643799
0, 181, 0, 6.134298324584961
0, 182, 0, 5.882133007049561
0, 183, 0, 6.076412200927734
0, 184, 0, 6.183213710784912
0, 185, 0, 6.378508567810059
0, 186, 0, 6.256392002105713
0, 187, 0, 6.302240371704102
0, 188, 0, 6.231155872344971
0, 189, 0, 6.329230785369873
0, 190, 0, 5.924392700195312
0, 191, 0, 6.373198509216309
0, 192, 0, 6.016130924224854
0, 193, 0, 6.227665901184082
0, 194, 0, 6.085078716278076
0, 195, 0, 6.291338920593262
0, 196, 0, 6.148263931274414
0, 197, 0, 6.197677612304688
0, 198, 0, 6.052667140960693
0, 199, 0, 5.950201988220215
0, 200, 0, 6.053694725036621
0, 201, 0, 6.092358589172363
0, 202, 0, 6.14032506942749
0, 203, 0, 6.310879230499268
0, 204, 0, 6.01094913482666
0, 205, 0, 6.190597057342529
0, 206, 0, 5.944146633148193
0, 207, 0, 6.161335468292236
0, 208, 0, 6.160697460174561
0, 209, 0, 6.262129783630371
0, 210, 0, 6.312766551971436
0, 211, 0, 6.189255714416504
0, 212, 0, 6.259243011474609
0, 213, 0, 6.448312759399414
0, 214, 0, 6.335803508758545
0, 215, 0, 6.161231517791748
0, 216, 0, 6.24431324005127
0, 217, 0, 6.217519760131836
0, 218, 0, 6.571739196777344
0, 219, 0, 6.169035911560059
0, 220, 0, 5.870093822479248
0, 221, 0, 6.393364906311035
0, 222, 0, 6.07511568069458
0, 223, 0, 6.125660419464111
0, 224, 0, 6.058505058288574
0, 225, 0, 6.156406402587891
0, 226, 0, 6.000153064727783
0, 227, 0, 6.146610260009766
0, 228, 0, 6.363804817199707
0, 229, 0, 6.128959178924561
0, 230, 0, 6.344309329986572
0, 231, 0, 5.816339492797852
0, 232, 0, 6.3328857421875
0, 233, 0, 6.263904094696045
0, 234, 0, 6.525665760040283
0, 235, 0, 6.140303611755371
0, 236, 0, 6.304571151733398
0, 237, 0, 6.42124080657959
0, 238, 0, 6.194551467895508
0, 239, 0, 5.945990085601807
0, 240, 0, 6.298628807067871
0, 241, 0, 6.044821262359619
0, 242, 0, 6.293013095855713
0, 243, 0, 6.383595943450928
0, 244, 0, 6.404717445373535
0, 245, 0, 6.333276748657227
0, 246, 0, 6.033289909362793
0, 247, 0, 6.343466281890869
0, 248, 0, 6.061001777648926
0, 249, 0, 6.445317268371582
0, 250, 0, 6.123554229736328
0, 251, 0, 6.24882984161377
0, 252, 0, 6.817598819732666
0, 253, 0, 6.32606840133667
0, 254, 0, 6.50364351272583
0, 255, 0, 6.407132625579834
0, 256, 0, 6.244318962097168
0, 257, 0, 6.072775840759277
0, 258, 0, 6.373712062835693
0, 259, 0, 6.184407711029053
0, 260, 0, 6.460480690002441
0, 261, 0, 6.630299091339111
0, 262, 0, 6.161941528320312
0, 263, 0, 6.189338684082031
0, 264, 0, 6.351621150970459
0, 265, 0, 6.626090049743652
0, 266, 0, 6.535099983215332
0, 267, 0, 6.136233329772949
0, 268, 0, 6.354244709014893
0, 269, 0, 6.130443572998047
0, 270, 0, 6.278430938720703
0, 271, 0, 6.398004531860352
0, 272, 0, 6.321749210357666
0, 273, 0, 6.667075157165527
0, 274, 0, 6.350422382354736
0, 275, 0, 6.16330623626709
0, 276, 0, 6.589768886566162
0, 277, 0, 6.588664531707764
0, 278, 0, 6.478331089019775
0, 279, 0, 6.24317455291748
0, 280, 0, 6.455987930297852
0, 281, 0, 6.166483879089355
0, 282, 0, 6.241842746734619
0, 283, 0, 6.569171905517578
0, 284, 0, 6.723637580871582
0, 285, 0, 6.500850677490234
0, 286, 0, 6.700593948364258
0, 287, 0, 6.826444149017334
0, 288, 0, 6.529592990875244
0, 289, 0, 6.889294624328613
0, 290, 0, 6.264469623565674
0, 291, 0, 6.62842845916748
0, 292, 0, 6.430253982543945
0, 293, 0, 6.829262733459473
0, 294, 0, 6.32917594909668
0, 295, 0, 6.606927871704102
0, 296, 0, 6.490964889526367
0, 297, 0, 6.37181282043457
0, 298, 0, 6.904904842376709
0, 299, 0, 6.075661182403564
