# TOPAS Version: 3.9
# Parameter File: data/topas/input/plan_1c/main_2GySOBP.txt
# Results for scorer: Scoring_protonD_XYBox
# Scored in component: ScoringXYBox
# X in 300 bins of 0.0666667 cm
# Y in 300 bins of 0.0666667 cm
# Z in 1 bin  of 2 cm
# DoseToWater ( Gy ) : Sum   
0, 0, 0, 4.957506050118354e-08
0, 1, 0, 2.962312173337978e-08
0, 2, 0, 9.61087565087837e-08
0, 3, 0, 1.862935050667147e-07
0, 4, 0, 4.211988269275935e-08
0, 5, 0, 7.180826742114732e-07
0, 6, 0, 2.018187359453805e-07
0, 7, 0, 4.283579713160179e-08
0, 8, 0, 4.030682987377077e-08
0, 9, 0, 3.130548620333684e-08
0, 10, 0, 7.670180224295109e-08
0, 11, 0, 1.945751790799477e-07
0, 12, 0, 1.273605363394381e-07
0, 13, 0, 2.712148194916608e-08
0, 14, 0, 8.33110931353076e-08
0, 15, 0, 3.005558468771596e-08
0, 16, 0, 2.514309471735032e-06
0, 17, 0, 6.169585020643353e-08
0, 18, 0, 1.208965869636813e-07
0, 19, 0, 1.166026066812265e-07
0, 20, 0, 1.170313694842662e-07
0, 21, 0, 7.05732574601825e-08
0, 22, 0, 2.801658105511251e-08
0, 23, 0, 2.429733285680413e-07
0, 24, 0, 1.013072434830065e-07
0, 25, 0, 3.83192855224479e-07
0, 26, 0, 4.676749938425928e-07
0, 27, 0, 7.036346261202198e-08
0, 28, 0, 1.049112370310468e-06
0, 29, 0, 1.200281047886165e-07
0, 30, 0, 1.42593307828065e-06
0, 31, 0, 3.528453262902076e-08
0, 32, 0, 1.175480548454289e-07
0, 33, 0, 1.675899738984299e-07
0, 34, 0, 7.726089990001128e-08
0, 35, 0, 3.10298489125671e-08
0, 36, 0, 9.231734310333195e-08
0, 37, 0, 3.503711454300174e-08
0, 38, 0, 2.785226094204063e-08
0, 39, 0, 5.09616135957458e-08
0, 40, 0, 1.102656597140594e-07
0, 41, 0, 1.834363274610951e-07
0, 42, 0, 1.472487696219105e-07
0, 43, 0, 2.537028933602414e-07
0, 44, 0, 1.271807974490002e-07
0, 45, 0, 2.131215524059371e-07
0, 46, 0, 4.337758127803681e-06
0, 47, 0, 9.435107983790658e-08
0, 48, 0, 1.882570188627142e-07
0, 49, 0, 5.450190698752522e-08
0, 50, 0, 1.159918667781312e-07
0, 51, 0, 1.465078014462051e-07
0, 52, 0, 1.766392472291045e-07
0, 53, 0, 9.827572000631335e-08
0, 54, 0, 9.35989561412498e-08
0, 55, 0, 6.081548065139941e-08
0, 56, 0, 1.534212401566037e-07
0, 57, 0, 9.196297696689726e-07
0, 58, 0, 9.161913538946465e-08
0, 59, 0, 2.036863691046165e-07
0, 60, 0, 8.825780639654113e-08
0, 61, 0, 1.098829471857243e-07
0, 62, 0, 1.619856107026862e-07
0, 63, 0, 1.458651297525648e-07
0, 64, 0, 1.93437088569226e-07
0, 65, 0, 1.359367729492078e-07
0, 66, 0, 1.09435177364503e-07
0, 67, 0, 1.967715519413105e-07
0, 68, 0, 1.266637212893329e-07
0, 69, 0, 2.464866177831482e-08
0, 70, 0, 1.770212207929944e-07
0, 71, 0, 1.643393154893147e-08
0, 72, 0, 1.420925741513202e-06
0, 73, 0, 5.206360498277718e-08
0, 74, 0, 1.885628080344759e-07
0, 75, 0, 2.301391788250839e-07
0, 76, 0, 1.100049900060185e-07
0, 77, 0, 2.020636280519739e-08
0, 78, 0, 8.065759971032094e-08
0, 79, 0, 2.934801614173921e-06
0, 80, 0, 2.624545913931797e-07
0, 81, 0, 1.209937181556597e-06
0, 82, 0, 1.839259056168885e-07
0, 83, 0, 1.950936166394968e-06
0, 84, 0, 3.037662850147171e-07
0, 85, 0, 1.637952919963936e-07
0, 86, 0, 3.952655731609411e-07
0, 87, 0, 9.496555009036456e-08
0, 88, 0, 5.938549918482749e-08
0, 89, 0, 3.06340979250308e-07
0, 90, 0, 1.970582559351897e-07
0, 91, 0, 9.58477698986826e-07
0, 92, 0, 6.388876272467314e-07
0, 93, 0, 2.809217960475507e-07
0, 94, 0, 2.52626563224112e-07
0, 95, 0, 2.401404231022752e-07
0, 96, 0, 1.618591767282851e-07
0, 97, 0, 1.05602985911446e-07
0, 98, 0, 1.517433361186704e-06
0, 99, 0, 2.103127911823321e-07
0, 100, 0, 1.380572172138272e-07
0, 101, 0, 1.56669636908191e-06
0, 102, 0, 2.751850445292803e-07
0, 103, 0, 3.594824420360965e-07
0, 104, 0, 3.740279908015509e-07
0, 105, 0, 2.31265275374426e-07
0, 106, 0, 2.175755184907757e-07
0, 107, 0, 1.92441277135913e-07
0, 108, 0, 1.172167074514618e-07
0, 109, 0, 2.96651336384457e-07
0, 110, 0, 2.460916164181981e-07
0, 111, 0, 2.469291757734027e-07
0, 112, 0, 1.038175923895324e-06
0, 113, 0, 3.944626030261134e-07
0, 114, 0, 2.881620503103477e-06
0, 115, 0, 1.947866223872552e-07
0, 116, 0, 2.012362898540232e-07
0, 117, 0, 1.568182739219992e-07
0, 118, 0, 4.353065605755546e-07
0, 119, 0, 1.653681920288363e-07
0, 120, 0, 2.759018400411151e-07
0, 121, 0, 3.888360140535951e-07
0, 122, 0, 2.498440778708755e-07
0, 123, 0, 2.844791993084073e-07
0, 124, 0, 2.062078436892989e-07
0, 125, 0, 2.355721449021075e-07
0, 126, 0, 1.93429556816227e-07
0, 127, 0, 1.993960410118234e-07
0, 128, 0, 4.396824522245879e-07
0, 129, 0, 2.122932158954427e-07
0, 130, 0, 1.63267600328254e-07
0, 131, 0, 3.160196229146095e-07
0, 132, 0, 3.345533059473382e-07
0, 133, 0, 4.386346859064361e-07
0, 134, 0, 3.345153913869581e-07
0, 135, 0, 1.136504508281178e-07
0, 136, 0, 1.127900617348132e-07
0, 137, 0, 2.210385190437592e-07
0, 138, 0, 2.703908990042692e-07
0, 139, 0, 3.913126249699417e-07
0, 140, 0, 2.586200196219579e-07
0, 141, 0, 2.53202586009138e-07
0, 142, 0, 5.869466690455738e-07
0, 143, 0, 1.819543626879749e-07
0, 144, 0, 3.292005885668914e-07
0, 145, 0, 4.620891616013978e-07
0, 146, 0, 5.408656988947769e-07
0, 147, 0, 5.283263817545958e-07
0, 148, 0, 1.697261836852704e-06
0, 149, 0, 1.695494006526133e-06
0, 150, 0, 4.96892369028501e-07
0, 151, 0, 3.023404815394315e-07
0, 152, 0, 1.948468337786835e-07
0, 153, 0, 1.665426680119708e-06
0, 154, 0, 3.58739384864748e-07
0, 155, 0, 7.696211810070963e-07
0, 156, 0, 2.425899481295346e-07
0, 157, 0, 1.962394975407733e-07
0, 158, 0, 4.146510548252991e-07
0, 159, 0, 3.357792195401998e-07
0, 160, 0, 3.711824092533789e-07
0, 161, 0, 3.046194194666896e-07
0, 162, 0, 4.537829454420717e-07
0, 163, 0, 2.337933295848416e-07
0, 164, 0, 2.270847545560173e-07
0, 165, 0, 3.156786476665729e-07
0, 166, 0, 1.691444253992813e-06
0, 167, 0, 2.676060546491499e-07
0, 168, 0, 3.477859991107835e-07
0, 169, 0, 2.072484676318709e-06
0, 170, 0, 2.286206608914654e-06
0, 171, 0, 3.172215485847119e-07
0, 172, 0, 2.074664848805696e-07
0, 173, 0, 2.011417109315516e-06
0, 174, 0, 4.106331630282511e-07
0, 175, 0, 1.342918039881624e-06
0, 176, 0, 2.019873335257216e-07
0, 177, 0, 3.32835526251074e-07
0, 178, 0, 1.02270223578671e-06
0, 179, 0, 1.330676582256274e-06
0, 180, 0, 1.61201376158715e-06
0, 181, 0, 2.047031415486344e-07
0, 182, 0, 2.482042589235789e-07
0, 183, 0, 1.753781049274039e-07
0, 184, 0, 9.019112212627078e-07
0, 185, 0, 3.294930763786397e-07
0, 186, 0, 2.572225525909744e-07
0, 187, 0, 2.529830567254976e-07
0, 188, 0, 2.504552867321763e-07
0, 189, 0, 2.237909342284183e-07
0, 190, 0, 1.537352716241003e-07
0, 191, 0, 2.305406354707884e-07
0, 192, 0, 2.934634721896145e-07
0, 193, 0, 1.360247949833138e-07
0, 194, 0, 2.95832506935767e-07
0, 195, 0, 2.351282404333688e-07
0, 196, 0, 4.00488204377325e-07
0, 197, 0, 4.532863613349036e-07
0, 198, 0, 2.245208406748134e-06
0, 199, 0, 9.731537176094207e-08
0, 200, 0, 2.110497234752984e-06
0, 201, 0, 2.899469677686284e-07
0, 202, 0, 1.718310613796348e-07
0, 203, 0, 1.291066951125686e-07
0, 204, 0, 1.346448641470488e-07
0, 205, 0, 2.820647750922944e-07
0, 206, 0, 1.59622601358933e-07
0, 207, 0, 4.970921168023779e-07
0, 208, 0, 1.954034445361685e-07
0, 209, 0, 1.168991161648592e-07
0, 210, 0, 1.444472559342103e-07
0, 211, 0, 4.714088390755933e-07
0, 212, 0, 3.570833939647855e-07
0, 213, 0, 2.332481443545475e-07
0, 214, 0, 2.223159611958181e-07
0, 215, 0, 3.56829389147606e-07
0, 216, 0, 7.884757025067302e-08
0, 217, 0, 4.859775231125241e-07
0, 218, 0, 2.236130001165293e-07
0, 219, 0, 2.679884119061171e-07
0, 220, 0, 2.117910185006622e-07
0, 221, 0, 2.344983585089722e-07
0, 222, 0, 1.37214300366395e-07
0, 223, 0, 6.757775850019243e-07
0, 224, 0, 1.008494905363477e-07
0, 225, 0, 1.210380702332259e-07
0, 226, 0, 2.208159912697738e-07
0, 227, 0, 1.641899416426895e-07
0, 228, 0, 2.097137041801034e-07
0, 229, 0, 1.245491745294203e-07
0, 230, 0, 1.08629201633903e-07
0, 231, 0, 1.692492475058316e-07
0, 232, 0, 1.280600656627939e-07
0, 233, 0, 3.522968228253376e-08
0, 234, 0, 7.48214148416082e-08
0, 235, 0, 1.380834504516315e-07
0, 236, 0, 1.340996504950454e-07
0, 237, 0, 1.728172662751604e-07
0, 238, 0, 9.026477698625968e-08
0, 239, 0, 2.40532983752928e-07
0, 240, 0, 2.554757543293817e-07
0, 241, 0, 4.92563913212507e-07
0, 242, 0, 2.573311235209985e-07
0, 243, 0, 2.210298220006734e-07
0, 244, 0, 1.017123807400822e-07
0, 245, 0, 2.335883095838653e-07
0, 246, 0, 1.55933591372559e-07
0, 247, 0, 8.470986756492493e-08
0, 248, 0, 2.406274006716558e-07
0, 249, 0, 4.382376062039839e-07
0, 250, 0, 2.195442334596009e-07
0, 251, 0, 1.573688308553756e-07
0, 252, 0, 1.938019806857483e-07
0, 253, 0, 3.021999717134349e-08
0, 254, 0, 1.60250721137345e-07
0, 255, 0, 5.640137601403694e-08
0, 256, 0, 2.736869873842807e-06
0, 257, 0, 9.417983619641745e-07
0, 258, 0, 1.397141460302009e-07
0, 259, 0, 7.958706049748798e-08
0, 260, 0, 1.644666696165586e-07
0, 261, 0, 7.950139746526474e-08
0, 262, 0, 2.306796034190484e-07
0, 263, 0, 1.050368538813018e-07
0, 264, 0, 7.93141623489646e-08
0, 265, 0, 5.44607843266931e-08
0, 266, 0, 2.426495271379281e-08
0, 267, 0, 3.144849713976328e-08
0, 268, 0, 1.12912694305578e-07
0, 269, 0, 7.596329965053883e-08
0, 270, 0, 1.751413947204128e-07
0, 271, 0, 2.185326906101182e-07
0, 272, 0, 1.232086361824258e-07
0, 273, 0, 1.037057586472656e-07
0, 274, 0, 1.333046668605675e-07
0, 275, 0, 1.027683609322594e-07
0, 276, 0, 3.405619395380199e-07
0, 277, 0, 1.730131629074094e-07
0, 278, 0, 3.799587844355301e-08
0, 279, 0, 1.068819841520963e-07
0, 280, 0, 5.995801188873884e-08
0, 281, 0, 2.05679491216415e-08
0, 282, 0, 2.55150531813797e-08
0, 283, 0, 3.274430682154161e-08
0, 284, 0, 5.217924581302213e-08
0, 285, 0, 1.885660765310604e-07
0, 286, 0, 1.168354586411624e-07
0, 287, 0, 1.228073784886874e-07
0, 288, 0, 2.859666281551654e-08
0, 289, 0, 4.216049021010804e-08
0, 290, 0, 8.237361726060044e-08
0, 291, 0, 1.129195311477815e-06
0, 292, 0, 1.442494124148652e-07
0, 293, 0, 1.410631966791698e-06
0, 294, 0, 1.014137112065328e-07
0, 295, 0, 5.751350684590761e-08
0, 296, 0, 6.823634635111375e-08
0, 297, 0, 1.405568070822483e-07
0, 298, 0, 2.603001014733763e-08
0, 299, 0, 2.755834600520757e-07
1, 0, 0, 1.415619408362545e-06
1, 1, 0, 2.695364173632697e-06
1, 2, 0, 2.238051699521293e-08
1, 3, 0, 4.987458268601586e-08
1, 4, 0, 1.965462246289462e-07
1, 5, 0, 5.607528805740003e-07
1, 6, 0, 8.107355675690542e-09
1, 7, 0, 3.484937849407288e-08
1, 8, 0, 8.253481098563498e-08
1, 9, 0, 7.472903718053203e-08
1, 10, 0, 2.863298576016859e-08
1, 11, 0, 2.922110731162775e-08
1, 12, 0, 2.251361593152978e-06
1, 13, 0, 2.336228845933874e-07
1, 14, 0, 1.19481148885825e-06
1, 15, 0, 8.010306373762432e-08
1, 16, 0, 1.308361277096992e-07
1, 17, 0, 3.267799897344048e-08
1, 18, 0, 7.788829492483273e-08
1, 19, 0, 7.78965798531317e-08
1, 20, 0, 6.777290906256894e-08
1, 21, 0, 2.777090912786662e-08
1, 22, 0, 4.036922618411154e-08
1, 23, 0, 2.257517763837313e-07
1, 24, 0, 1.281258334984159e-07
1, 25, 0, 3.457686545971228e-07
1, 26, 0, 1.548695394149036e-07
1, 27, 0, 6.088283157623664e-07
1, 28, 0, 3.008306492802149e-08
1, 29, 0, 1.10323611579588e-07
1, 30, 0, 5.514356971048073e-08
1, 31, 0, 1.033219447776901e-07
1, 32, 0, 1.316892763725264e-07
1, 33, 0, 1.985147406458054e-07
1, 34, 0, 5.183763107652339e-08
1, 35, 0, 1.403411573619451e-07
1, 36, 0, 2.256751230333975e-07
1, 37, 0, 1.028106524358918e-07
1, 38, 0, 1.388083319397992e-07
1, 39, 0, 2.856877756585163e-07
1, 40, 0, 1.223171466335771e-07
1, 41, 0, 3.996982300691343e-08
1, 42, 0, 1.280085797361608e-07
1, 43, 0, 1.027714944257241e-07
1, 44, 0, 1.131203930526681e-07
1, 45, 0, 1.675729777161905e-07
1, 46, 0, 9.969531333808845e-08
1, 47, 0, 1.765924224628179e-07
1, 48, 0, 8.546596319547461e-08
1, 49, 0, 1.409049730227707e-07
1, 50, 0, 1.942552927403085e-07
1, 51, 0, 1.799269355728939e-08
1, 52, 0, 1.746645637012989e-07
1, 53, 0, 8.962845754467708e-08
1, 54, 0, 6.075310210462703e-08
1, 55, 0, 8.428312980868213e-08
1, 56, 0, 1.016254941532679e-06
1, 57, 0, 8.467479233331687e-07
1, 58, 0, 4.350272320152726e-08
1, 59, 0, 1.200951089685987e-07
1, 60, 0, 1.252881105529013e-07
1, 61, 0, 1.306237180642711e-07
1, 62, 0, 2.579015188075573e-07
1, 63, 0, 1.672953260367649e-07
1, 64, 0, 1.643668667838938e-07
1, 65, 0, 2.401192844558864e-08
1, 66, 0, 2.85093904039968e-07
1, 67, 0, 1.463963030801096e-07
1, 68, 0, 1.432591858474552e-07
1, 69, 0, 2.404577337244973e-08
1, 70, 0, 4.305713616759022e-07
1, 71, 0, 1.441602570650957e-08
1, 72, 0, 2.929704123744159e-06
1, 73, 0, 2.699920855775417e-07
1, 74, 0, 2.9919348776275e-07
1, 75, 0, 1.975916745777795e-07
1, 76, 0, 8.168258318619337e-07
1, 77, 0, 1.152372419710446e-07
1, 78, 0, 6.414244069219421e-08
1, 79, 0, 4.918514662222151e-08
1, 80, 0, 1.795432069684466e-07
1, 81, 0, 2.948034079963691e-06
1, 82, 0, 3.71660775044802e-07
1, 83, 0, 4.043810264420244e-08
1, 84, 0, 1.529036808278761e-07
1, 85, 0, 2.576478550508909e-07
1, 86, 0, 3.533134815825179e-07
1, 87, 0, 1.526526887118962e-07
1, 88, 0, 6.586586920320769e-08
1, 89, 0, 1.66331687978527e-07
1, 90, 0, 1.020458029188376e-07
1, 91, 0, 4.102371917724668e-07
1, 92, 0, 2.506720875317114e-07
1, 93, 0, 3.367889860328432e-07
1, 94, 0, 2.586190248621278e-07
1, 95, 0, 3.128503180960251e-07
1, 96, 0, 1.965490241673251e-07
1, 97, 0, 3.835972961496736e-07
1, 98, 0, 1.530289353013359e-07
1, 99, 0, 2.313353490990266e-07
1, 100, 0, 1.666664388721983e-07
1, 101, 0, 2.326309669342663e-07
1, 102, 0, 1.985698219186816e-07
1, 103, 0, 3.213974650861928e-07
1, 104, 0, 2.951306612430926e-07
1, 105, 0, 4.047485333558143e-07
1, 106, 0, 3.663633663109067e-07
1, 107, 0, 3.737464737696428e-07
1, 108, 0, 2.770363494164485e-07
1, 109, 0, 2.626011053052935e-07
1, 110, 0, 1.259335704162368e-06
1, 111, 0, 1.253395822686798e-07
1, 112, 0, 2.926514355294785e-07
1, 113, 0, 3.784270177220606e-07
1, 114, 0, 3.074035248573637e-07
1, 115, 0, 2.044641632892308e-06
1, 116, 0, 2.198452335733236e-07
1, 117, 0, 3.337338512210408e-07
1, 118, 0, 1.872097072919132e-07
1, 119, 0, 3.479813415196986e-07
1, 120, 0, 3.305540872133861e-07
1, 121, 0, 3.370614649611525e-07
1, 122, 0, 6.088251893743291e-07
1, 123, 0, 4.52523948979433e-07
1, 124, 0, 2.474010614150757e-07
1, 125, 0, 1.636733600207663e-06
1, 126, 0, 2.11204977063062e-07
1, 127, 0, 4.215759474845981e-07
1, 128, 0, 4.210615713873267e-07
1, 129, 0, 3.957037506552297e-07
1, 130, 0, 2.514334767056425e-07
1, 131, 0, 3.101271772720793e-07
1, 132, 0, 2.725208787524025e-07
1, 133, 0, 4.36544013382445e-07
1, 134, 0, 3.237146586343442e-07
1, 135, 0, 3.428864943089138e-07
1, 136, 0, 2.385790196512971e-07
1, 137, 0, 3.367999568126834e-07
1, 138, 0, 4.298817373182828e-07
1, 139, 0, 1.354332681557935e-07
1, 140, 0, 3.309592955247354e-07
1, 141, 0, 3.074804908465012e-07
1, 142, 0, 3.604853304750577e-07
1, 143, 0, 1.627403776183201e-07
1, 144, 0, 3.396717431769503e-07
1, 145, 0, 2.183244305342669e-07
1, 146, 0, 4.267705833171931e-07
1, 147, 0, 3.182067871421168e-07
1, 148, 0, 3.782989210776577e-07
1, 149, 0, 4.640260726773704e-07
1, 150, 0, 1.57977666503939e-07
1, 151, 0, 1.712023589561795e-07
1, 152, 0, 2.659041626884573e-07
1, 153, 0, 2.998633590323152e-07
1, 154, 0, 3.872782770031336e-07
1, 155, 0, 1.408940420333238e-06
1, 156, 0, 2.828551544098445e-07
1, 157, 0, 1.882111035911294e-07
1, 158, 0, 3.368348870935733e-07
1, 159, 0, 2.89417670273906e-07
1, 160, 0, 4.150760730681213e-07
1, 161, 0, 3.184080128448841e-07
1, 162, 0, 5.610330390481977e-06
1, 163, 0, 4.39035318322567e-07
1, 164, 0, 2.299533292671185e-07
1, 165, 0, 3.758450475288555e-07
1, 166, 0, 5.00345208820363e-07
1, 167, 0, 1.89284975249393e-07
1, 168, 0, 3.625675049079291e-07
1, 169, 0, 2.702497283735283e-07
1, 170, 0, 2.731225947627536e-07
1, 171, 0, 4.522236736193008e-07
1, 172, 0, 4.395095629661228e-07
1, 173, 0, 2.635258340433211e-07
1, 174, 0, 2.595210446543206e-07
1, 175, 0, 1.468991399633524e-06
1, 176, 0, 2.910934711053415e-07
1, 177, 0, 3.749623829207849e-07
1, 178, 0, 4.599199883159599e-07
1, 179, 0, 3.023594956630404e-07
1, 180, 0, 5.255669179859979e-07
1, 181, 0, 2.333039361701594e-07
1, 182, 0, 1.765232923389704e-06
1, 183, 0, 9.694580285213306e-07
1, 184, 0, 2.378803571900789e-07
1, 185, 0, 5.334290449354739e-07
1, 186, 0, 2.452275964515138e-07
1, 187, 0, 1.742247235370087e-07
1, 188, 0, 4.00989279114583e-07
1, 189, 0, 2.682605213522038e-07
1, 190, 0, 2.145103508155444e-07
1, 191, 0, 2.613928700156976e-07
1, 192, 0, 2.513288848149386e-07
1, 193, 0, 2.871410515581374e-06
1, 194, 0, 2.29099399007282e-07
1, 195, 0, 4.329758951371332e-07
1, 196, 0, 3.48453255583081e-07
1, 197, 0, 2.721222642776411e-07
1, 198, 0, 6.820285989306285e-07
1, 199, 0, 2.398963943051058e-07
1, 200, 0, 1.795757782474539e-07
1, 201, 0, 3.391695031496056e-07
1, 202, 0, 3.278184692590003e-07
1, 203, 0, 2.596792114673008e-07
1, 204, 0, 1.5799982122644e-07
1, 205, 0, 1.398163931298768e-07
1, 206, 0, 1.703112815221175e-07
1, 207, 0, 2.100904481494581e-07
1, 208, 0, 5.444572934720782e-07
1, 209, 0, 5.899178177060094e-07
1, 210, 0, 3.489347818685928e-06
1, 211, 0, 3.834988433482067e-07
1, 212, 0, 2.109469079414339e-07
1, 213, 0, 2.310565321295144e-07
1, 214, 0, 2.350177510379581e-06
1, 215, 0, 1.757471892460671e-07
1, 216, 0, 9.977153325735344e-08
1, 217, 0, 1.408661773893982e-07
1, 218, 0, 2.967819625609991e-07
1, 219, 0, 1.988700262245402e-07
1, 220, 0, 2.253519255646097e-07
1, 221, 0, 3.330919071231619e-06
1, 222, 0, 3.889520883149089e-07
1, 223, 0, 1.979198174240082e-07
1, 224, 0, 1.655204897588192e-07
1, 225, 0, 1.273225507247844e-07
1, 226, 0, 1.656119223980568e-07
1, 227, 0, 1.601769525905183e-07
1, 228, 0, 1.748916673705025e-07
1, 229, 0, 4.169839940004749e-07
1, 230, 0, 1.704142249536744e-07
1, 231, 0, 1.313324133889182e-07
1, 232, 0, 1.760116816740265e-07
1, 233, 0, 2.103176086620806e-07
1, 234, 0, 1.999084702219989e-07
1, 235, 0, 1.187701670346542e-07
1, 236, 0, 8.901290726726074e-08
1, 237, 0, 2.683404090930708e-06
1, 238, 0, 1.690715691893274e-07
1, 239, 0, 1.662701549776102e-07
1, 240, 0, 1.507031015535176e-07
1, 241, 0, 2.252419477599688e-07
1, 242, 0, 2.622084878112219e-07
1, 243, 0, 1.619138885189386e-07
1, 244, 0, 1.683912245198371e-07
1, 245, 0, 2.624641695092578e-07
1, 246, 0, 1.11277515202346e-07
1, 247, 0, 1.448929651814979e-07
1, 248, 0, 6.597767310267955e-08
1, 249, 0, 1.157685787234186e-07
1, 250, 0, 7.806861646031393e-08
1, 251, 0, 1.690034991952416e-07
1, 252, 0, 1.879619162536983e-07
1, 253, 0, 2.305820174797191e-07
1, 254, 0, 1.174861594677168e-07
1, 255, 0, 1.563831801831839e-07
1, 256, 0, 1.265844247200221e-07
1, 257, 0, 7.873723006923683e-08
1, 258, 0, 1.622823759817038e-07
1, 259, 0, 1.070409254566584e-07
1, 260, 0, 6.639863414648062e-08
1, 261, 0, 6.663084661795438e-08
1, 262, 0, 1.079236966461394e-07
1, 263, 0, 9.022722480267475e-08
1, 264, 0, 1.044251973780774e-07
1, 265, 0, 9.51831680140458e-08
1, 266, 0, 6.124891882564043e-08
1, 267, 0, 9.648151433339081e-08
1, 268, 0, 2.893558814776043e-08
1, 269, 0, 2.577954738569588e-08
1, 270, 0, 1.021790225763652e-07
1, 271, 0, 9.922752042257343e-08
1, 272, 0, 1.192966294638609e-07
1, 273, 0, 1.776900404593107e-07
1, 274, 0, 8.852210697796181e-08
1, 275, 0, 1.523419257409842e-07
1, 276, 0, 1.535441640498902e-07
1, 277, 0, 1.694924435469147e-06
1, 278, 0, 3.622360722488338e-08
1, 279, 0, 8.19465171275624e-08
1, 280, 0, 1.394871986803992e-07
1, 281, 0, 2.800165077587735e-08
1, 282, 0, 4.590359736766914e-08
1, 283, 0, 1.840287922050265e-08
1, 284, 0, 3.449552110623699e-08
1, 285, 0, 1.871721195811915e-07
1, 286, 0, 1.371407449823892e-07
1, 287, 0, 4.910173956318431e-08
1, 288, 0, 1.175517496676548e-07
1, 289, 0, 1.17818920841728e-07
1, 290, 0, 1.393102593283402e-07
1, 291, 0, 1.696840712384073e-07
1, 292, 0, 4.609404768984859e-08
1, 293, 0, 5.978783690352429e-08
1, 294, 0, 6.87375347752095e-08
1, 295, 0, 6.86605119426531e-08
1, 296, 0, 4.362637895383159e-08
1, 297, 0, 1.172748440581017e-07
1, 298, 0, 1.360128294436436e-07
1, 299, 0, 2.522818931538495e-07
2, 0, 0, 1.870195376341144e-07
2, 1, 0, 2.134866861069895e-08
2, 2, 0, 2.605826132651146e-08
2, 3, 0, 2.049765335243592e-08
2, 4, 0, 3.298189810152508e-08
2, 5, 0, 2.441163893251996e-08
2, 6, 0, 2.616916674469394e-07
2, 7, 0, 9.97975817540464e-08
2, 8, 0, 7.109110100600446e-08
2, 9, 0, 1.363949220234417e-08
2, 10, 0, 9.8814162186045e-08
2, 11, 0, 1.315590338890615e-07
2, 12, 0, 1.738934969353068e-07
2, 13, 0, 2.159607817020515e-07
2, 14, 0, 1.659427226741172e-07
2, 15, 0, 6.639907468297679e-08
2, 16, 0, 2.36621275462312e-07
2, 17, 0, 3.071304632840111e-08
2, 18, 0, 8.476027346659976e-08
2, 19, 0, 2.725294834249326e-08
2, 20, 0, 2.807597354603786e-08
2, 21, 0, 1.469071122528476e-07
2, 22, 0, 1.163165990192283e-07
2, 23, 0, 7.135871271657379e-08
2, 24, 0, 1.231962869496783e-07
2, 25, 0, 5.584974616112959e-08
2, 26, 0, 1.201583046395172e-07
2, 27, 0, 5.156728732913507e-08
2, 28, 0, 2.406705945645626e-08
2, 29, 0, 3.944948545608895e-08
2, 30, 0, 1.142663705877567e-07
2, 31, 0, 4.393575068206701e-07
2, 32, 0, 6.347153203023481e-08
2, 33, 0, 1.33737259488953e-07
2, 34, 0, 1.803693265856054e-07
2, 35, 0, 1.764729944397914e-07
2, 36, 0, 9.433597369934432e-07
2, 37, 0, 1.313044748485481e-07
2, 38, 0, 3.085466744323639e-07
2, 39, 0, 3.813140097008727e-07
2, 40, 0, 2.161762679975254e-08
2, 41, 0, 3.386284319617516e-08
2, 42, 0, 3.785631008668133e-08
2, 43, 0, 6.012518838360847e-08
2, 44, 0, 1.882516812656831e-06
2, 45, 0, 5.116109491609677e-08
2, 46, 0, 2.651785507623572e-06
2, 47, 0, 9.274462087205393e-08
2, 48, 0, 1.042437034470822e-07
2, 49, 0, 1.372655901832331e-06
2, 50, 0, 3.931597802875331e-06
2, 51, 0, 1.325763605564134e-06
2, 52, 0, 4.945133724731932e-08
2, 53, 0, 2.240659391361532e-08
2, 54, 0, 5.649302536880896e-08
2, 55, 0, 1.261277304820396e-07
2, 56, 0, 3.20805867204399e-07
2, 57, 0, 1.438656767049906e-07
2, 58, 0, 7.828209902527306e-08
2, 59, 0, 1.05516214432555e-07
2, 60, 0, 2.571943014118006e-07
2, 61, 0, 1.008899971566279e-06
2, 62, 0, 3.592311372813128e-07
2, 63, 0, 1.115971713261388e-06
2, 64, 0, 1.054751379570007e-07
2, 65, 0, 2.227943554089507e-07
2, 66, 0, 4.433304212625444e-08
2, 67, 0, 9.632202591092209e-08
2, 68, 0, 3.682015119466087e-07
2, 69, 0, 1.983754742695965e-07
2, 70, 0, 1.215416887134779e-07
2, 71, 0, 1.753206362309356e-07
2, 72, 0, 1.234488706813863e-07
2, 73, 0, 5.682143182639265e-07
2, 74, 0, 4.104265372006921e-07
2, 75, 0, 2.957349920507113e-07
2, 76, 0, 7.465617812840719e-08
2, 77, 0, 1.431249785355249e-07
2, 78, 0, 1.158665767775346e-07
2, 79, 0, 3.709755446834606e-06
2, 80, 0, 3.360193545631773e-07
2, 81, 0, 1.455732558497402e-06
2, 82, 0, 2.937968304195238e-07
2, 83, 0, 6.65796449084155e-07
2, 84, 0, 1.308288091195209e-07
2, 85, 0, 1.192442340425259e-07
2, 86, 0, 8.587355182498868e-08
2, 87, 0, 1.684740453811173e-07
2, 88, 0, 1.2362757217943e-07
2, 89, 0, 1.81873375026953e-07
2, 90, 0, 9.946051449105653e-08
2, 91, 0, 1.845323680527144e-07
2, 92, 0, 5.416629846877186e-07
2, 93, 0, 2.185827497669379e-06
2, 94, 0, 3.065889018216694e-07
2, 95, 0, 2.170004762547251e-07
2, 96, 0, 2.777653946850478e-07
2, 97, 0, 2.590236078958696e-07
2, 98, 0, 1.55492145381686e-07
2, 99, 0, 3.985983880738786e-07
2, 100, 0, 3.660946390482422e-07
2, 101, 0, 2.180459404144131e-07
2, 102, 0, 1.884551181774441e-07
2, 103, 0, 3.350720874095714e-07
2, 104, 0, 2.235921243709527e-07
2, 105, 0, 2.644566166054574e-07
2, 106, 0, 2.546873645314918e-07
2, 107, 0, 2.699248966564483e-07
2, 108, 0, 4.295032169920887e-07
2, 109, 0, 3.463589564489666e-06
2, 110, 0, 2.152711431335774e-06
2, 111, 0, 3.084343234149856e-06
2, 112, 0, 3.084466584368784e-07
2, 113, 0, 3.469801299615938e-07
2, 114, 0, 2.106764753762036e-07
2, 115, 0, 1.221104071191803e-07
2, 116, 0, 2.165038779367023e-07
2, 117, 0, 1.557745861191506e-07
2, 118, 0, 2.21023356061778e-07
2, 119, 0, 2.635394196204288e-07
2, 120, 0, 1.27600301880193e-07
2, 121, 0, 1.642203415030963e-06
2, 122, 0, 3.759508331313555e-07
2, 123, 0, 2.744932089626673e-06
2, 124, 0, 5.882520781597123e-07
2, 125, 0, 2.132164240720158e-07
2, 126, 0, 5.010310246689187e-07
2, 127, 0, 2.172796769173146e-07
2, 128, 0, 4.443346597327036e-07
2, 129, 0, 6.761960094081587e-07
2, 130, 0, 1.056121959663869e-06
2, 131, 0, 2.89956119559065e-07
2, 132, 0, 4.156867703386524e-07
2, 133, 0, 3.039140779037552e-07
2, 134, 0, 6.316948883977602e-07
2, 135, 0, 2.564415808592457e-07
2, 136, 0, 5.120139690006908e-07
2, 137, 0, 4.16029791949768e-07
2, 138, 0, 4.030841296298604e-07
2, 139, 0, 2.998746708726685e-07
2, 140, 0, 1.423200615136011e-07
2, 141, 0, 5.065729737907532e-07
2, 142, 0, 3.430761807976523e-07
2, 143, 0, 2.507849501398596e-07
2, 144, 0, 1.26967643154785e-06
2, 145, 0, 3.601643072670413e-07
2, 146, 0, 2.518546011742728e-07
2, 147, 0, 3.138567592486652e-07
2, 148, 0, 4.713411101420206e-07
2, 149, 0, 4.873614898315282e-07
2, 150, 0, 1.732957798594725e-06
2, 151, 0, 2.002082197805066e-07
2, 152, 0, 1.401230520059471e-06
2, 153, 0, 3.913345096862031e-07
2, 154, 0, 3.310147178581246e-07
2, 155, 0, 3.646497930276382e-07
2, 156, 0, 4.331614604780043e-07
2, 157, 0, 2.911966248575482e-06
2, 158, 0, 2.977826909500436e-07
2, 159, 0, 2.1274392736359e-07
2, 160, 0, 5.721660158997111e-07
2, 161, 0, 4.121740175833111e-07
2, 162, 0, 3.187145978245098e-07
2, 163, 0, 6.132372618594673e-07
2, 164, 0, 2.822868054863648e-06
2, 165, 0, 3.06645006276085e-07
2, 166, 0, 2.724178784774267e-07
2, 167, 0, 3.166636020068836e-07
2, 168, 0, 2.343559941664353e-07
2, 169, 0, 1.917189820233034e-07
2, 170, 0, 2.060193082797923e-07
2, 171, 0, 1.808757701837749e-06
2, 172, 0, 2.648793042681064e-07
2, 173, 0, 3.703547406530561e-07
2, 174, 0, 2.267975105496589e-07
2, 175, 0, 4.788515184372955e-07
2, 176, 0, 5.230226065577881e-07
2, 177, 0, 3.33771964733387e-07
2, 178, 0, 3.832795698599512e-07
2, 179, 0, 1.536701915938465e-06
2, 180, 0, 2.481476428783935e-07
2, 181, 0, 1.615024416423694e-07
2, 182, 0, 1.912661247160941e-07
2, 183, 0, 2.291927927444704e-07
2, 184, 0, 1.881037690054654e-07
2, 185, 0, 1.517722409971611e-07
2, 186, 0, 4.873232342106348e-07
2, 187, 0, 1.981732680178538e-07
2, 188, 0, 2.905808003106358e-07
2, 189, 0, 3.789253923969227e-06
2, 190, 0, 1.014297595247626e-06
2, 191, 0, 4.148286620875297e-07
2, 192, 0, 1.537130970064027e-06
2, 193, 0, 2.12189661397133e-07
2, 194, 0, 9.54079041548539e-07
2, 195, 0, 2.223743678086976e-07
2, 196, 0, 2.688187521471264e-07
2, 197, 0, 3.479015617813275e-07
2, 198, 0, 2.32367071362205e-07
2, 199, 0, 4.37248274920421e-07
2, 200, 0, 2.724781040797097e-07
2, 201, 0, 1.453497304737539e-07
2, 202, 0, 1.515238352567394e-07
2, 203, 0, 2.351723651372595e-07
2, 204, 0, 2.083306043232369e-07
2, 205, 0, 8.526090766736161e-08
2, 206, 0, 2.160593339795014e-07
2, 207, 0, 1.872281387704788e-07
2, 208, 0, 3.124268062038027e-07
2, 209, 0, 3.574313609533419e-07
2, 210, 0, 2.016558511286348e-07
2, 211, 0, 7.73010668808638e-08
2, 212, 0, 2.124687199511754e-07
2, 213, 0, 3.29034548940399e-07
2, 214, 0, 3.648005986178759e-07
2, 215, 0, 2.36993514590722e-07
2, 216, 0, 1.74708020495018e-07
2, 217, 0, 1.517590135335922e-06
2, 218, 0, 2.351723225046953e-07
2, 219, 0, 3.160613459840533e-07
2, 220, 0, 1.931869917370932e-07
2, 221, 0, 1.601850243559966e-07
2, 222, 0, 2.099364309060547e-07
2, 223, 0, 1.522342074622429e-07
2, 224, 0, 1.928008259710623e-07
2, 225, 0, 2.714277513859997e-07
2, 226, 0, 2.247031574142966e-07
2, 227, 0, 1.214481955003066e-07
2, 228, 0, 2.132561434109448e-07
2, 229, 0, 1.136872995743943e-07
2, 230, 0, 1.758472762958263e-07
2, 231, 0, 1.25956461261012e-07
2, 232, 0, 2.164959482797713e-07
2, 233, 0, 1.757487524400858e-07
2, 234, 0, 9.606474549173072e-08
2, 235, 0, 2.491679254035262e-07
2, 236, 0, 2.662416420662339e-07
2, 237, 0, 2.699941035189113e-07
2, 238, 0, 1.307623591628726e-07
2, 239, 0, 1.888733578425672e-07
2, 240, 0, 9.973530268325703e-08
2, 241, 0, 2.337866362722707e-07
2, 242, 0, 2.907754321768152e-07
2, 243, 0, 1.800882785119029e-07
2, 244, 0, 1.12688304909625e-07
2, 245, 0, 4.556450505788234e-07
2, 246, 0, 1.323634251093608e-07
2, 247, 0, 2.844670810020489e-08
2, 248, 0, 6.751206171884405e-08
2, 249, 0, 1.664084265939891e-07
2, 250, 0, 1.022479878542981e-07
2, 251, 0, 3.362880249824229e-07
2, 252, 0, 2.978613338200375e-07
2, 253, 0, 1.286234407871234e-07
2, 254, 0, 7.548104719035109e-08
2, 255, 0, 2.34395724874048e-06
2, 256, 0, 1.08560392675372e-07
2, 257, 0, 9.224879704561317e-08
2, 258, 0, 1.559033648845798e-07
2, 259, 0, 1.213886662299046e-07
2, 260, 0, 1.919348733281367e-06
2, 261, 0, 1.086398597749394e-07
2, 262, 0, 4.456303770439263e-07
2, 263, 0, 1.343877045201225e-07
2, 264, 0, 6.363658400232453e-08
2, 265, 0, 9.987871152361549e-08
2, 266, 0, 7.940974455777905e-08
2, 267, 0, 6.232884430801278e-08
2, 268, 0, 3.613115850953363e-08
2, 269, 0, 2.109396291416488e-06
2, 270, 0, 2.222725186129537e-07
2, 271, 0, 1.271231724331301e-07
2, 272, 0, 9.41885858196656e-08
2, 273, 0, 1.893955214882226e-08
2, 274, 0, 1.311972823714314e-07
2, 275, 0, 7.520323208609625e-08
2, 276, 0, 2.073804807878332e-07
2, 277, 0, 9.771166986638491e-08
2, 278, 0, 5.55745529595697e-08
2, 279, 0, 9.687933300028817e-08
2, 280, 0, 1.784731296083919e-07
2, 281, 0, 4.302011902268532e-08
2, 282, 0, 7.303957261228788e-08
2, 283, 0, 3.987580399211765e-08
2, 284, 0, 7.617542507887265e-08
2, 285, 0, 7.997269335646706e-08
2, 286, 0, 1.352518808062086e-07
2, 287, 0, 2.691640155205732e-08
2, 288, 0, 5.740770703255293e-08
2, 289, 0, 1.114082905928626e-07
2, 290, 0, 5.767092758901526e-08
2, 291, 0, 1.078067484172607e-07
2, 292, 0, 7.336385010603408e-08
2, 293, 0, 4.805205122693224e-08
2, 294, 0, 4.804708453320927e-08
2, 295, 0, 4.958340227290137e-08
2, 296, 0, 5.821616966272813e-08
2, 297, 0, 4.387960927942913e-08
2, 298, 0, 7.077679953226834e-08
2, 299, 0, 3.069904721542116e-07
3, 0, 0, 1.296750866686125e-07
3, 1, 0, 1.298125482662726e-07
3, 2, 0, 9.582907267713381e-08
3, 3, 0, 3.852709262730514e-09
3, 4, 0, 1.461302634453432e-08
3, 5, 0, 6.444953015716237e-08
3, 6, 0, 3.517430968713597e-08
3, 7, 0, 1.149644646147863e-07
3, 8, 0, 8.905709591999766e-08
3, 9, 0, 5.543892257264815e-06
3, 10, 0, 3.332660014621069e-08
3, 11, 0, 1.901685919847296e-08
3, 12, 0, 2.087542050333013e-08
3, 13, 0, 2.853341811714927e-07
