# TOPAS Version: 3.7
# Parameter File: data/topas/input/plan_2/main_160MeV.txt
# Results for scorer Scoring_protonD_XYBox
# Scored in component: ScoringXYBox
# X in 300 bins of 0.0666667 cm
# Y in 300 bins of 0.0666667 cm
# Z in 1 bin  of 2 cm
# DoseToWater ( Gy ) : Sum   
0, 0, 0, 2.235044433973599e-07
0, 1, 0, 1.216991023511582e-07
0, 2, 0, 2.207201532655745e-07
0, 3, 0, 1.105399078937808e-07
0, 4, 0, 2.782009573820687e-07
0, 5, 0, 2.433641270727094e-07
0, 6, 0, 4.192734195385128e-07
0, 7, 0, 7.430734854096954e-07
0, 8, 0, 6.808518833167909e-07
0, 9, 0, 2.492157307187881e-07
0, 10, 0, 6.926639457560668e-07
0, 11, 0, 1.867200296601368e-07
0, 12, 0, 3.628920808296243e-07
0, 13, 0, 2.274175727734473e-07
0, 14, 0, 3.082525665831781e-07
0, 15, 0, 3.781053123930178e-07
0, 16, 0, 5.519412979992921e-07
0, 17, 0, 1.29636887891138e-07
0, 18, 0, 3.627911269177275e-07
0, 19, 0, 4.720440358596534e-07
0, 20, 0, 1.427071794068979e-07
0, 21, 0, 6.554388392032706e-07
0, 22, 0, 4.179063353149104e-07
0, 23, 0, 4.962324737789459e-07
0, 24, 0, 1.22070304087174e-07
0, 25, 0, 1.527067325923781e-07
0, 26, 0, 9.014106439053649e-08
0, 27, 0, 1.98820885088935e-07
0, 28, 0, 1.27112798509188e-07
0, 29, 0, 1.64848870554124e-07
0, 30, 0, 1.233936188782536e-07
0, 31, 0, 3.472451908237417e-07
0, 32, 0, 2.462062127506215e-07
0, 33, 0, 1.967326426211002e-07
0, 34, 0, 8.094210670606117e-07
0, 35, 0, 2.524273554627143e-07
0, 36, 0, 2.796119815684506e-07
0, 37, 0, 2.225090582896883e-07
0, 38, 0, 2.379859012080487e-07
0, 39, 0, 2.63794788679661e-07
0, 40, 0, 4.386910461562366e-07
0, 41, 0, 3.783882220886881e-07
0, 42, 0, 6.133672769692566e-08
0, 43, 0, 2.688976508125052e-07
0, 44, 0, 7.382795956800692e-07
0, 45, 0, 2.001763022008163e-07
0, 46, 0, 9.973927035389352e-07
0, 47, 0, 4.052161273193633e-07
0, 48, 0, 3.002450341682561e-07
0, 49, 0, 1.684330754869734e-07
0, 50, 0, 3.856248440570198e-07
0, 51, 0, 2.936333203251706e-07
0, 52, 0, 4.893801133221132e-07
0, 53, 0, 5.956470090495714e-07
0, 54, 0, 7.076494057400851e-07
0, 55, 0, 5.837392791363527e-07
0, 56, 0, 6.858346068838728e-07
0, 57, 0, 7.853633405829896e-07
0, 58, 0, 3.195951592260826e-07
0, 59, 0, 6.849481906101573e-07
0, 60, 0, 6.078255410102429e-07
0, 61, 0, 1.036107278196141e-06
0, 62, 0, 6.900883704474836e-07
0, 63, 0, 1.062252977135358e-06
0, 64, 0, 6.010501465425477e-07
0, 65, 0, 1.026874087983742e-06
0, 66, 0, 1.306200942963187e-06
0, 67, 0, 8.287985906463291e-07
0, 68, 0, 1.095906782211387e-06
0, 69, 0, 9.640466487326194e-07
0, 70, 0, 9.084153020921804e-07
0, 71, 0, 1.099352516575891e-06
0, 72, 0, 1.084498876480211e-06
0, 73, 0, 9.699487009129371e-07
0, 74, 0, 7.801110655236698e-07
0, 75, 0, 6.749843919351406e-07
0, 76, 0, 8.138853218042641e-07
0, 77, 0, 9.092167374546989e-07
0, 78, 0, 7.188425570348045e-07
0, 79, 0, 7.031067070784047e-07
0, 80, 0, 8.246199172390334e-07
0, 81, 0, 5.865148864359071e-07
0, 82, 0, 1.039347125697532e-06
0, 83, 0, 3.972619424530421e-07
0, 84, 0, 6.54558618862211e-07
0, 85, 0, 1.121458922170859e-06
0, 86, 0, 7.367997909568658e-07
0, 87, 0, 8.029896321204433e-07
0, 88, 0, 1.045262592924701e-06
0, 89, 0, 9.504170179752691e-07
0, 90, 0, 8.825013537716586e-07
0, 91, 0, 1.71404121829255e-06
0, 92, 0, 1.356915959149774e-06
0, 93, 0, 8.853889994497877e-07
0, 94, 0, 7.632017968717264e-07
0, 95, 0, 9.618495369068114e-07
0, 96, 0, 1.017917611534358e-06
0, 97, 0, 1.011247263704718e-06
0, 98, 0, 9.978713251257432e-07
0, 99, 0, 8.713504939805716e-07
0, 100, 0, 8.733768481761217e-07
0, 101, 0, 8.957861155067803e-07
0, 102, 0, 1.288687371925334e-06
0, 103, 0, 1.048651824930857e-06
0, 104, 0, 8.009472480807744e-07
0, 105, 0, 8.6424410028485e-07
0, 106, 0, 1.635802391319885e-06
0, 107, 0, 1.244925670107477e-06
0, 108, 0, 1.063524223354761e-06
0, 109, 0, 9.439935979571601e-07
0, 110, 0, 7.967645956341585e-07
0, 111, 0, 7.375415407295804e-07
0, 112, 0, 1.368358880426968e-06
0, 113, 0, 1.187268821922771e-06
0, 114, 0, 6.14799830600532e-07
0, 115, 0, 5.177025741431862e-07
0, 116, 0, 5.067539063929871e-07
0, 117, 0, 8.8639183104533e-07
0, 118, 0, 1.025410256261239e-06
0, 119, 0, 8.163176516973181e-07
0, 120, 0, 7.801920105521276e-07
0, 121, 0, 5.822631692353752e-07
0, 122, 0, 1.03738273082854e-06
0, 123, 0, 6.523781621581293e-07
0, 124, 0, 7.974720119818812e-07
0, 125, 0, 8.104687481136352e-07
0, 126, 0, 1.003173338176566e-06
0, 127, 0, 1.105599835682369e-06
0, 128, 0, 7.149380394366744e-07
0, 129, 0, 7.010468721091456e-07
0, 130, 0, 8.308142582791334e-07
0, 131, 0, 8.577147241339844e-07
0, 132, 0, 1.040580059452623e-06
0, 133, 0, 9.238167990588408e-07
0, 134, 0, 1.059129544955795e-06
0, 135, 0, 9.885444569590618e-07
0, 136, 0, 8.839668339533091e-07
0, 137, 0, 7.638131478415744e-07
0, 138, 0, 9.593355798642733e-07
0, 139, 0, 7.148233294174133e-07
0, 140, 0, 8.542298246538849e-07
0, 141, 0, 5.954216817372071e-07
0, 142, 0, 6.143930590951641e-07
0, 143, 0, 8.667656743455154e-07
0, 144, 0, 9.225087751474348e-07
0, 145, 0, 1.311548430749099e-06
0, 146, 0, 1.170367227132374e-06
0, 147, 0, 1.092543129743717e-06
0, 148, 0, 1.021128809952643e-06
0, 149, 0, 8.135439770740049e-07
0, 150, 0, 7.773194852234155e-07
0, 151, 0, 8.797347845757031e-07
0, 152, 0, 6.7013183979725e-07
0, 153, 0, 7.626966862517293e-07
0, 154, 0, 8.697957127878908e-07
0, 155, 0, 8.454192652607162e-07
0, 156, 0, 8.216834999075218e-07
0, 157, 0, 7.731206324024242e-07
0, 158, 0, 6.040183961886214e-07
0, 159, 0, 6.823235594310972e-07
0, 160, 0, 1.1292449926259e-06
0, 161, 0, 8.343488389073173e-07
0, 162, 0, 9.14507666038844e-07
0, 163, 0, 8.695050723872555e-07
0, 164, 0, 7.589565598209447e-07
0, 165, 0, 8.240252213909116e-07
0, 166, 0, 1.149929403254646e-06
0, 167, 0, 8.470470334032143e-07
0, 168, 0, 1.270999177904741e-06
0, 169, 0, 8.115470677694248e-07
0, 170, 0, 8.890515346138272e-07
0, 171, 0, 4.886081228505645e-07
0, 172, 0, 5.951749244559323e-07
0, 173, 0, 1.159743533207802e-06
0, 174, 0, 1.188234705296054e-06
0, 175, 0, 9.657937880547252e-07
0, 176, 0, 9.134492415796558e-07
0, 177, 0, 5.942877692177717e-07
0, 178, 0, 8.675667118041019e-07
0, 179, 0, 8.898072110241628e-07
0, 180, 0, 8.29990710826678e-07
0, 181, 0, 6.773255449843418e-07
0, 182, 0, 7.155250045798311e-07
0, 183, 0, 7.630397931279731e-07
0, 184, 0, 9.468204211771081e-07
0, 185, 0, 6.871173354738858e-07
0, 186, 0, 7.630625873389363e-07
0, 187, 0, 8.089661491794686e-07
0, 188, 0, 9.8200291631656e-07
0, 189, 0, 8.130014066409785e-07
0, 190, 0, 6.647783266089391e-07
0, 191, 0, 8.347508355655009e-07
0, 192, 0, 1.123823267334956e-06
0, 193, 0, 9.195734378408815e-07
0, 194, 0, 8.917169793676294e-07
0, 195, 0, 6.907559964020038e-07
0, 196, 0, 6.222771844477393e-07
0, 197, 0, 7.558270453955629e-07
0, 198, 0, 5.11189398366696e-07
0, 199, 0, 9.777377272257581e-07
0, 200, 0, 1.171880398942449e-06
0, 201, 0, 4.138358633554162e-07
0, 202, 0, 4.377290565571457e-07
0, 203, 0, 7.184887635958148e-07
0, 204, 0, 6.012461994941987e-07
0, 205, 0, 3.972179456468439e-07
0, 206, 0, 7.741467129562807e-07
0, 207, 0, 4.265148163540289e-07
0, 208, 0, 8.711015766493801e-07
0, 209, 0, 3.954964995500632e-07
0, 210, 0, 4.1308820186714e-07
0, 211, 0, 6.388960400727228e-07
0, 212, 0, 5.852799063177372e-07
0, 213, 0, 6.933138365639024e-07
0, 214, 0, 6.112796313573199e-07
0, 215, 0, 4.4540465182763e-07
0, 216, 0, 3.273496531619458e-07
0, 217, 0, 4.182104760275251e-07
0, 218, 0, 5.563586000789655e-07
0, 219, 0, 6.159814915918105e-07
0, 220, 0, 4.238759458985442e-07
0, 221, 0, 3.170819127262803e-07
0, 222, 0, 3.604044991334376e-07
0, 223, 0, 3.558366472589114e-07
0, 224, 0, 3.337206351261557e-07
0, 225, 0, 2.606189468679077e-07
0, 226, 0, 3.952534370910143e-07
0, 227, 0, 4.727502584955801e-07
0, 228, 0, 5.974976033940038e-07
0, 229, 0, 4.393264703139721e-07
0, 230, 0, 3.320128882933204e-07
0, 231, 0, 4.514704130542668e-07
0, 232, 0, 2.940364538517315e-07
0, 233, 0, 4.284225383344165e-07
0, 234, 0, 4.090636878117948e-07
0, 235, 0, 6.245273880267632e-07
0, 236, 0, 2.107019270169985e-07
0, 237, 0, 2.145072102166523e-07
0, 238, 0, 4.501870307649369e-07
0, 239, 0, 4.200998091619113e-07
0, 240, 0, 2.873509572509647e-07
0, 241, 0, 4.469818577490514e-07
0, 242, 0, 4.690696471243427e-07
0, 243, 0, 2.03321036451598e-07
0, 244, 0, 3.688679441893328e-07
0, 245, 0, 3.916368314094143e-07
0, 246, 0, 2.94353981189488e-07
0, 247, 0, 1.901494073308641e-07
0, 248, 0, 3.695917314416874e-07
0, 249, 0, 2.011199740081793e-07
0, 250, 0, 6.772424399059673e-07
0, 251, 0, 2.089479096412106e-07
0, 252, 0, 2.535881833409803e-07
0, 253, 0, 3.312955527690065e-07
0, 254, 0, 2.383530102179066e-07
0, 255, 0, 1.691266646730583e-07
0, 256, 0, 1.717122017907968e-07
0, 257, 0, 2.166054429153519e-07
0, 258, 0, 2.622863064516423e-07
0, 259, 0, 2.447429494623066e-07
0, 260, 0, 1.787341830095102e-07
0, 261, 0, 2.442938296098873e-07
0, 262, 0, 1.44835524906739e-07
0, 263, 0, 1.896473094120665e-07
0, 264, 0, 2.142699742080367e-07
0, 265, 0, 3.711109286541614e-07
0, 266, 0, 5.728743346367082e-08
0, 267, 0, 1.526234001403282e-07
0, 268, 0, 3.293436918738735e-07
0, 269, 0, 3.30957618643879e-07
0, 270, 0, 2.067931035298898e-07
0, 271, 0, 1.74781717987571e-07
0, 272, 0, 1.689799660198332e-07
0, 273, 0, 1.281529193875031e-07
0, 274, 0, 1.435027741081285e-07
0, 275, 0, 1.747795295159449e-07
0, 276, 0, 1.03918154081839e-07
0, 277, 0, 8.901425019303133e-08
0, 278, 0, 2.164666028647844e-07
0, 279, 0, 2.538353669478965e-07
0, 280, 0, 9.498893405179842e-08
0, 281, 0, 2.223425497049902e-07
0, 282, 0, 7.888903752473198e-08
0, 283, 0, 1.563909393098584e-07
0, 284, 0, 1.512362217681584e-07
0, 285, 0, 4.710285566034145e-07
0, 286, 0, 3.281437273017218e-07
0, 287, 0, 3.48641322034382e-07
0, 288, 0, 1.273156158276834e-07
0, 289, 0, 3.234625012282777e-07
0, 290, 0, 2.398909089151857e-07
0, 291, 0, 3.249621158829541e-07
0, 292, 0, 1.745208351167093e-07
0, 293, 0, 2.809424586303066e-07
0, 294, 0, 3.016586731519055e-07
0, 295, 0, 1.681332406633373e-07
0, 296, 0, 1.259455189028813e-07
0, 297, 0, 1.288196500581762e-07
0, 298, 0, 1.893324679258512e-07
0, 299, 0, 7.347549058067671e-07
1, 0, 0, 1.858045948210929e-07
1, 1, 0, 1.864137573193148e-07
1, 2, 0, 3.226525677746395e-07
1, 3, 0, 1.103089175558125e-07
1, 4, 0, 3.147389406876755e-07
1, 5, 0, 2.396197373855102e-07
1, 6, 0, 2.751044405613357e-07
1, 7, 0, 5.897979349356319e-07
1, 8, 0, 4.184425392850244e-07
1, 9, 0, 2.726035290834261e-07
1, 10, 0, 5.898576773688546e-07
1, 11, 0, 2.828353160566621e-07
1, 12, 0, 2.276198074468994e-07
1, 13, 0, 1.618407310388648e-07
1, 14, 0, 2.846688289537269e-07
1, 15, 0, 1.788485519682581e-07
1, 16, 0, 3.613465651142178e-07
1, 17, 0, 1.984957407330512e-07
1, 18, 0, 2.270219852107402e-07
1, 19, 0, 4.383792031603662e-07
1, 20, 0, 1.544651553331278e-07
1, 21, 0, 2.620151917653857e-07
1, 22, 0, 3.181958163622767e-07
1, 23, 0, 3.599966476031113e-07
1, 24, 0, 3.510583894694719e-07
1, 25, 0, 2.899101332332066e-07
1, 26, 0, 5.891160981263965e-07
1, 27, 0, 8.707100107585575e-08
1, 28, 0, 2.117711090932062e-07
1, 29, 0, 4.16652966350739e-07
1, 30, 0, 2.896001660701586e-07
1, 31, 0, 1.889078191652516e-07
1, 32, 0, 1.389148849284538e-07
1, 33, 0, 2.895703516969661e-07
1, 34, 0, 5.000252940590144e-07
1, 35, 0, 6.764691988792038e-07
1, 36, 0, 5.482777396537131e-07
1, 37, 0, 3.030363586731255e-07
1, 38, 0, 2.680752970718459e-07
1, 39, 0, 3.241660522235179e-07
1, 40, 0, 1.118692765089691e-07
1, 41, 0, 3.092578992891504e-07
1, 42, 0, 3.995770043729863e-07
1, 43, 0, 5.580516244663158e-07
1, 44, 0, 8.779521181168093e-07
1, 45, 0, 6.614217227252084e-07
1, 46, 0, 7.592955739710305e-07
1, 47, 0, 5.326290306584269e-07
1, 48, 0, 2.87227294393233e-07
1, 49, 0, 2.744415041888715e-07
1, 50, 0, 4.271546742984356e-07
1, 51, 0, 1.049399088515202e-06
1, 52, 0, 5.471994768413424e-07
1, 53, 0, 6.67190249714622e-07
1, 54, 0, 5.866119749953214e-07
1, 55, 0, 5.53315544493671e-07
1, 56, 0, 8.984934538602829e-07
1, 57, 0, 7.979000429259031e-07
1, 58, 0, 8.328071317009744e-07
1, 59, 0, 9.2181892341614e-07
1, 60, 0, 6.911648142704507e-07
1, 61, 0, 1.214485791933839e-06
1, 62, 0, 7.750188046884432e-07
1, 63, 0, 1.120336378335196e-06
1, 64, 0, 7.219529152280302e-07
1, 65, 0, 6.84484803059604e-07
1, 66, 0, 6.339076321637549e-07
1, 67, 0, 5.04035369885969e-07
1, 68, 0, 8.44048827275401e-07
1, 69, 0, 9.117787271861744e-07
1, 70, 0, 1.177006197394803e-06
1, 71, 0, 9.958620239558513e-07
1, 72, 0, 1.2567104477057e-06
1, 73, 0, 1.186325221169682e-06
1, 74, 0, 1.030370981425222e-06
1, 75, 0, 8.558154149795882e-07
1, 76, 0, 7.207415819721064e-07
1, 77, 0, 9.178083928418346e-07
1, 78, 0, 8.03239686320012e-07
1, 79, 0, 8.513910643159761e-07
1, 80, 0, 1.272763597626181e-06
1, 81, 0, 6.730835480084352e-07
1, 82, 0, 4.540707720934734e-07
1, 83, 0, 8.32035482289939e-07
1, 84, 0, 1.031966235132131e-06
1, 85, 0, 1.065772494257544e-06
1, 86, 0, 1.39776363994315e-06
1, 87, 0, 1.265673290617997e-06
1, 88, 0, 7.906187420303468e-07
1, 89, 0, 6.472446330008097e-07
1, 90, 0, 9.660966497904155e-07
1, 91, 0, 9.639073823564104e-07
1, 92, 0, 1.006614411380724e-06
1, 93, 0, 1.223112349180155e-06
1, 94, 0, 7.993129997885262e-07
1, 95, 0, 8.510065185873827e-07
1, 96, 0, 9.318358706877916e-07
1, 97, 0, 9.231920330421417e-07
1, 98, 0, 9.084598673325672e-07
1, 99, 0, 9.516512591289938e-07
1, 100, 0, 8.047310302572441e-07
1, 101, 0, 1.144733232649742e-06
1, 102, 0, 1.217050453306001e-06
1, 103, 0, 1.064393813976494e-06
1, 104, 0, 9.632542514736997e-07
1, 105, 0, 9.391382604917453e-07
1, 106, 0, 7.575591212116706e-07
1, 107, 0, 1.187865905194485e-06
1, 108, 0, 1.035468812915497e-06
1, 109, 0, 9.628899988456396e-07
1, 110, 0, 1.370700147163006e-06
1, 111, 0, 1.144357725024747e-06
1, 112, 0, 1.244568920810707e-06
1, 113, 0, 1.281058871427376e-06
1, 114, 0, 1.064850266629946e-06
1, 115, 0, 8.452014981230604e-07
1, 116, 0, 7.926969374238979e-07
1, 117, 0, 6.909084504513885e-07
1, 118, 0, 7.074689847286209e-07
1, 119, 0, 8.650022778056154e-07
1, 120, 0, 9.540797236695653e-07
1, 121, 0, 9.45951398989564e-07
1, 122, 0, 7.559652317468135e-07
1, 123, 0, 6.369309630827047e-07
1, 124, 0, 9.237190283784003e-07
1, 125, 0, 1.253730488315341e-06
1, 126, 0, 1.182054234050156e-06
1, 127, 0, 1.144508360084728e-06
1, 128, 0, 8.881243616087886e-07
1, 129, 0, 7.876401468820404e-07
1, 130, 0, 8.970801559371466e-07
1, 131, 0, 6.938248588994611e-07
1, 132, 0, 7.070169090184208e-07
1, 133, 0, 7.969448461153661e-07
1, 134, 0, 1.019462956719508e-06
1, 135, 0, 7.207002568065946e-07
1, 136, 0, 8.6219279182842e-07
1, 137, 0, 1.082480366676464e-06
1, 138, 0, 1.076715420822438e-06
1, 139, 0, 6.84797214489663e-07
1, 140, 0, 7.047665917525592e-07
1, 141, 0, 8.862257914188376e-07
1, 142, 0, 7.1952189273361e-07
1, 143, 0, 9.024108180710755e-07
1, 144, 0, 8.999877536552958e-07
1, 145, 0, 1.354768869532563e-06
1, 146, 0, 9.171416195385973e-07
1, 147, 0, 9.406343224327429e-07
1, 148, 0, 1.289832425754867e-06
1, 149, 0, 1.479180809837999e-06
1, 150, 0, 1.408991010976024e-06
1, 151, 0, 1.122739945458306e-06
1, 152, 0, 8.956623105405015e-07
1, 153, 0, 1.103098270505143e-06
1, 154, 0, 1.076894022844499e-06
1, 155, 0, 1.035381615110964e-06
1, 156, 0, 6.481396326307731e-07
1, 157, 0, 8.82649828781723e-07
1, 158, 0, 1.576032900629798e-06
1, 159, 0, 1.038084860738309e-06
1, 160, 0, 8.962762194641982e-07
1, 161, 0, 7.438644047397247e-07
1, 162, 0, 9.83671952781151e-07
1, 163, 0, 1.092544152925257e-06
1, 164, 0, 6.981939577599405e-07
1, 165, 0, 7.041214757919079e-07
1, 166, 0, 1.056424366652209e-06
1, 167, 0, 1.3498311091098e-06
1, 168, 0, 9.738018889038358e-07
1, 169, 0, 1.29369834667159e-06
1, 170, 0, 9.722811000756337e-07
1, 171, 0, 7.409033173644275e-07
1, 172, 0, 7.096080025803531e-07
1, 173, 0, 4.42932105215732e-07
1, 174, 0, 6.613244636355375e-07
1, 175, 0, 9.65309936873382e-07
1, 176, 0, 1.049961269927735e-06
1, 177, 0, 7.628508456036798e-07
1, 178, 0, 7.267721002790495e-07
1, 179, 0, 8.427323905380035e-07
1, 180, 0, 8.258489287982229e-07
1, 181, 0, 7.622902558068745e-07
1, 182, 0, 1.082053017853468e-06
1, 183, 0, 7.013953222667624e-07
1, 184, 0, 1.112700488192786e-06
1, 185, 0, 1.366112996947777e-06
1, 186, 0, 1.012235543385032e-06
1, 187, 0, 6.55667804494442e-07
1, 188, 0, 5.350669880499481e-07
1, 189, 0, 9.027020837493183e-07
1, 190, 0, 1.095847323995258e-06
1, 191, 0, 7.689038739044918e-07
1, 192, 0, 9.598513770470163e-07
1, 193, 0, 1.164114905805036e-06
1, 194, 0, 8.320435540554172e-07
1, 195, 0, 5.920650778534764e-07
1, 196, 0, 8.337616463904851e-07
1, 197, 0, 8.019761708055739e-07
1, 198, 0, 4.2099304664589e-07
1, 199, 0, 1.000255224425928e-06
1, 200, 0, 9.240138751920313e-07
1, 201, 0, 5.89701130593312e-07
1, 202, 0, 4.549082746052591e-07
1, 203, 0, 6.973637596274784e-07
1, 204, 0, 5.354343102226267e-07
1, 205, 0, 5.86938824653771e-07
1, 206, 0, 6.714085429848637e-07
1, 207, 0, 8.662058803565742e-07
1, 208, 0, 4.483930524656898e-07
1, 209, 0, 5.560571025853278e-07
1, 210, 0, 5.02659531775862e-07
1, 211, 0, 5.824600748383091e-07
1, 212, 0, 6.123122489043453e-07
1, 213, 0, 5.193601282371674e-07
1, 214, 0, 1.020425429487659e-06
1, 215, 0, 1.021590605887468e-06
1, 216, 0, 5.080426603853994e-07
1, 217, 0, 5.343214866115886e-07
1, 218, 0, 5.022819209443696e-07
1, 219, 0, 6.353918138302106e-07
1, 220, 0, 3.964430845826428e-07
1, 221, 0, 6.215839789547317e-07
1, 222, 0, 4.368573058854963e-07
1, 223, 0, 4.694032895713462e-07
1, 224, 0, 3.385010245438025e-07
1, 225, 0, 7.218065434244636e-07
1, 226, 0, 3.621460962222045e-07
1, 227, 0, 5.510986511580995e-07
1, 228, 0, 3.608742531469034e-07
1, 229, 0, 4.966423716723511e-07
1, 230, 0, 8.927926273827325e-07
1, 231, 0, 5.194220307203068e-07
1, 232, 0, 3.956616865252727e-07
1, 233, 0, 3.851833128010185e-07
1, 234, 0, 5.877669764231541e-07
1, 235, 0, 2.717678739827534e-07
1, 236, 0, 1.767507455952e-07
1, 237, 0, 3.275297899563157e-07
1, 238, 0, 2.260020579569755e-07
1, 239, 0, 3.520304687754106e-07
1, 240, 0, 3.02390503748029e-07
1, 241, 0, 4.73453923177658e-07
1, 242, 0, 2.008234645245466e-07
1, 243, 0, 3.83496086442392e-07
1, 244, 0, 3.072272818371857e-07
1, 245, 0, 4.642519400022138e-07
1, 246, 0, 3.611004615322599e-07
1, 247, 0, 1.883953046899478e-07
1, 248, 0, 2.833830592408049e-07
1, 249, 0, 2.547480164594162e-07
1, 250, 0, 3.558569119377353e-07
1, 251, 0, 2.730836570208339e-07
1, 252, 0, 2.14492956729373e-07
1, 253, 0, 3.119584164323896e-07
1, 254, 0, 3.407269844046823e-07
1, 255, 0, 1.63163363708918e-07
1, 256, 0, 2.03134121079529e-07
1, 257, 0, 1.423366029484896e-07
1, 258, 0, 2.352132355554204e-07
1, 259, 0, 2.470673052812344e-07
1, 260, 0, 2.581682281288522e-07
1, 261, 0, 1.543780854262877e-07
1, 262, 0, 2.099249769571543e-07
1, 263, 0, 6.456508572227904e-07
1, 264, 0, 2.511696663987095e-07
1, 265, 0, 2.180875497970192e-07
1, 266, 0, 2.13418999805981e-07
1, 267, 0, 1.310992558956059e-07
1, 268, 0, 1.898786905485395e-07
1, 269, 0, 2.66180364860702e-07
1, 270, 0, 1.112847371587122e-06
1, 271, 0, 2.231653013495816e-07
1, 272, 0, 1.282387387391282e-07
1, 273, 0, 1.614015587847462e-07
1, 274, 0, 1.057470839782582e-07
1, 275, 0, 1.598916270495465e-07
1, 276, 0, 1.378199101509381e-07
1, 277, 0, 1.716175574983936e-07
1, 278, 0, 8.913340110439094e-08
1, 279, 0, 1.721620890293707e-07
1, 280, 0, 1.990111258010074e-07
1, 281, 0, 1.393998303456101e-07
1, 282, 0, 8.148380459260807e-08
1, 283, 0, 5.343992626194449e-08
1, 284, 0, 1.543207588383666e-07
1, 285, 0, 2.444657525302318e-07
1, 286, 0, 1.628479253668047e-07
1, 287, 0, 1.552010502336998e-07
1, 288, 0, 1.002297125296536e-07
1, 289, 0, 9.665969713523737e-08
1, 290, 0, 1.476096969099672e-07
1, 291, 0, 1.480677553900023e-07
1, 292, 0, 2.541732442296052e-07
1, 293, 0, 2.830326764069468e-07
1, 294, 0, 3.585954004847736e-07
1, 295, 0, 1.005850833735167e-07
1, 296, 0, 9.358331709563572e-08
1, 297, 0, 1.232363047165563e-07
1, 298, 0, 3.530616083935456e-07
1, 299, 0, 6.71947930186434e-07
2, 0, 0, 3.983616920777422e-07
2, 1, 0, 2.114491195470691e-07
2, 2, 0, 2.139423855851419e-07
2, 3, 0, 2.32703982305793e-07
2, 4, 0, 4.263941946192062e-07
2, 5, 0, 5.267833671496192e-07
2, 6, 0, 5.217684702074621e-07
2, 7, 0, 3.658039702258975e-07
2, 8, 0, 4.717323349723301e-07
2, 9, 0, 8.368965609406587e-07
2, 10, 0, 8.651027769701614e-07
2, 11, 0, 2.341758431612107e-07
2, 12, 0, 4.817339913643082e-07
2, 13, 0, 2.322335888038651e-07
2, 14, 0, 3.126013723431242e-07
2, 15, 0, 3.739096143817733e-07
2, 16, 0, 3.576290623641398e-07
2, 17, 0, 7.133037627227168e-08
2, 18, 0, 9.840753278922421e-08
2, 19, 0, 1.448397597414441e-07
2, 20, 0, 2.036869375388051e-07
2, 21, 0, 3.02375582350578e-07
2, 22, 0, 2.027278469540761e-07
2, 23, 0, 3.605974541187607e-07
2, 24, 0, 1.965464662134764e-07
2, 25, 0, 1.529814426248777e-07
2, 26, 0, 2.106941252577599e-07
2, 27, 0, 1.161909111146997e-07
2, 28, 0, 1.312119479734974e-07
2, 29, 0, 2.175480204869018e-07
2, 30, 0, 3.797770773417142e-07
2, 31, 0, 1.127466333628035e-07
2, 32, 0, 4.466210725695419e-07
2, 33, 0, 9.343305151787717e-08
2, 34, 0, 1.620256142587095e-07
2, 35, 0, 4.86782880670944e-07
2, 36, 0, 3.598571822749363e-07
2, 37, 0, 2.900829940699623e-07
2, 38, 0, 3.571267086499574e-07
2, 39, 0, 1.812365582054554e-07
2, 40, 0, 4.240701798607915e-07
2, 41, 0, 4.406883249430393e-07
2, 42, 0, 3.377669202109246e-07
2, 43, 0, 5.256842428025266e-07
2, 44, 0, 2.229483868632087e-07
2, 45, 0, 5.485072165356542e-07
2, 46, 0, 4.081402096289821e-07
2, 47, 0, 7.976054803293664e-07
2, 48, 0, 6.910296974638186e-07
2, 49, 0, 5.821818831464043e-07
2, 50, 0, 7.014128300397715e-07
2, 51, 0, 3.9416687513949e-07
2, 52, 0, 4.672760098856088e-07
2, 53, 0, 4.784415637004713e-07
2, 54, 0, 5.915759402341791e-07
2, 55, 0, 7.840166063033394e-07
2, 56, 0, 1.046800548465399e-06
2, 57, 0, 1.246426108991727e-06
2, 58, 0, 8.22312699710892e-07
2, 59, 0, 9.73643750512565e-07
2, 60, 0, 1.488325324316975e-06
2, 61, 0, 1.15360217023408e-06
2, 62, 0, 1.034512479236582e-06
2, 63, 0, 9.806798288991558e-07
2, 64, 0, 9.148187700702692e-07
2, 65, 0, 5.564760954257508e-07
2, 66, 0, 1.005023023026297e-06
2, 67, 0, 8.701396154719987e-07
2, 68, 0, 5.581026698564528e-07
2, 69, 0, 7.287601420102874e-07
2, 70, 0, 6.553120215357922e-07
2, 71, 0, 8.425476494267059e-07
2, 72, 0, 1.363505589324632e-06
2, 73, 0, 1.115641339310969e-06
2, 74, 0, 1.255591769222519e-06
2, 75, 0, 8.487159561809676e-07
2, 76, 0, 1.052962602443586e-06
2, 77, 0, 1.221376237481309e-06
2, 78, 0, 1.064907110048807e-06
2, 79, 0, 8.523119277015212e-07
2, 80, 0, 7.98448525074491e-07
2, 81, 0, 1.100339090953639e-06
2, 82, 0, 1.404404656568659e-06
2, 83, 0, 1.207371610689734e-06
2, 84, 0, 9.28790427678905e-07
2, 85, 0, 9.253655548491224e-07
2, 86, 0, 1.207416175930121e-06
2, 87, 0, 1.128285589402367e-06
2, 88, 0, 1.078054992831312e-06
2, 89, 0, 1.55258123868407e-06
2, 90, 0, 1.168733433587477e-06
2, 91, 0, 6.697352432638581e-07
2, 92, 0, 1.269064114239882e-06
2, 93, 0, 1.256781047231925e-06
2, 94, 0, 8.973566423264856e-07
2, 95, 0, 8.810284839455562e-07
2, 96, 0, 9.671749694462051e-07
2, 97, 0, 9.931200111168437e-07
2, 98, 0, 8.77665968346264e-07
2, 99, 0, 8.676562970322266e-07
2, 100, 0, 8.015196613087028e-07
2, 101, 0, 9.155227758128603e-07
2, 102, 0, 1.291069679609791e-06
2, 103, 0, 1.234540150107932e-06
2, 104, 0, 1.109680738409224e-06
2, 105, 0, 1.207878995046485e-06
2, 106, 0, 9.731631962495157e-07
2, 107, 0, 9.795157893677242e-07
2, 108, 0, 6.959270422157715e-07
2, 109, 0, 8.850399240145634e-07
2, 110, 0, 8.616667059868632e-07
2, 111, 0, 1.092518800760445e-06
2, 112, 0, 1.214571170748968e-06
2, 113, 0, 1.310870970883116e-06
2, 114, 0, 1.041088580677751e-06
2, 115, 0, 1.545020040794043e-06
2, 116, 0, 1.038754589899327e-06
2, 117, 0, 1.024208245326008e-06
2, 118, 0, 8.679864436089701e-07
2, 119, 0, 1.283948563468584e-06
2, 120, 0, 1.179848936772032e-06
2, 121, 0, 1.159160092356615e-06
2, 122, 0, 1.187366592603212e-06
2, 123, 0, 1.189947170132655e-06
2, 124, 0, 1.103340991903679e-06
2, 125, 0, 9.276716355088865e-07
2, 126, 0, 1.205761236633407e-06
2, 127, 0, 1.764880380505929e-06
2, 128, 0, 1.014597614812374e-06
2, 129, 0, 7.050377348605252e-07
2, 130, 0, 1.047358182404423e-06
2, 131, 0, 8.165400799953204e-07
2, 132, 0, 1.35827337999217e-06
2, 133, 0, 8.490723644172249e-07
2, 134, 0, 9.705239563118084e-07
2, 135, 0, 1.057287818184705e-06
2, 136, 0, 1.03352113001165e-06
2, 137, 0, 1.269294557459943e-06
2, 138, 0, 1.519336706223839e-06
2, 139, 0, 9.956364692698116e-07
2, 140, 0, 1.120694150813506e-06
2, 141, 0, 8.219741403081571e-07
2, 142, 0, 1.565858269714226e-06
2, 143, 0, 9.408004757460731e-07
2, 144, 0, 7.723971293671639e-07
2, 145, 0, 1.184217239824648e-06
2, 146, 0, 9.343183364762808e-07
2, 147, 0, 1.208277353725862e-06
2, 148, 0, 1.108152332562895e-06
2, 149, 0, 1.097637209568347e-06
2, 150, 0, 1.048780973178509e-06
2, 151, 0, 1.404373847435636e-06
2, 152, 0, 9.761444061950897e-07
2, 153, 0, 7.208994929897017e-07
2, 154, 0, 8.903949151317647e-07
2, 155, 0, 8.460612548333302e-07
2, 156, 0, 7.968675390657154e-07
2, 157, 0, 1.127196355810156e-06
2, 158, 0, 1.134219019149896e-06
2, 159, 0, 7.611148475916707e-07
2, 160, 0, 1.104964553633181e-06
2, 161, 0, 8.938397400015674e-07
2, 162, 0, 7.374571282525721e-07
2, 163, 0, 1.171018197965168e-06
2, 164, 0, 7.716737968621601e-07
2, 165, 0, 7.468326543857984e-07
2, 166, 0, 1.116063458539429e-06
2, 167, 0, 1.16424394036585e-06
2, 168, 0, 1.242144890056807e-06
2, 169, 0, 9.255994655177346e-07
2, 170, 0, 1.05883236756199e-06
2, 171, 0, 9.683393500381499e-07
2, 172, 0, 1.139064693234104e-06
2, 173, 0, 6.752956096534035e-07
2, 174, 0, 6.987305596339866e-07
2, 175, 0, 7.531258461312973e-07
2, 176, 0, 1.185658334179607e-06
2, 177, 0, 8.433262905782613e-07
2, 178, 0, 1.093702167054289e-06
2, 179, 0, 7.62881370519608e-07
2, 180, 0, 7.98957387360133e-07
2, 181, 0, 1.027157850330696e-06
2, 182, 0, 7.656656748622481e-07
2, 183, 0, 9.669025757830241e-07
2, 184, 0, 8.657194143779634e-07
2, 185, 0, 1.067929474629636e-06
2, 186, 0, 9.597396228855359e-07
2, 187, 0, 9.045633646564966e-07
2, 188, 0, 7.912060482340166e-07
2, 189, 0, 7.379991870948288e-07
2, 190, 0, 9.729371868161252e-07
2, 191, 0, 5.925837740505813e-07
2, 192, 0, 8.778735605119437e-07
2, 193, 0, 1.01891748727212e-06
2, 194, 0, 1.039814947034756e-06
2, 195, 0, 9.181394489132799e-07
2, 196, 0, 9.465991297474829e-07
2, 197, 0, 8.622708946859348e-07
2, 198, 0, 7.831852713025e-07
2, 199, 0, 6.632185431953985e-07
2, 200, 0, 9.506152878202556e-07
2, 201, 0, 8.26304244583298e-07
2, 202, 0, 7.20998173164844e-07
2, 203, 0, 8.918026992432715e-07
2, 204, 0, 7.181435535130731e-07
2, 205, 0, 5.776042257821246e-07
2, 206, 0, 5.862183343197103e-07
2, 207, 0, 6.971233688091161e-07
2, 208, 0, 9.008954293676652e-07
2, 209, 0, 5.083711016595771e-07
2, 210, 0, 6.651943067481625e-07
2, 211, 0, 5.841009169671452e-07
2, 212, 0, 5.458948066916491e-07
2, 213, 0, 1.080875563275185e-06
2, 214, 0, 5.373855174184428e-07
2, 215, 0, 6.883957439640653e-07
2, 216, 0, 9.584341569279786e-07
2, 217, 0, 1.076074795491877e-06
2, 218, 0, 5.791570742985641e-07
2, 219, 0, 3.725174337887438e-07
2, 220, 0, 3.312028127311351e-07
2, 221, 0, 5.201073918215116e-07
2, 222, 0, 5.362267643249652e-07
2, 223, 0, 5.135072456141643e-07
2, 224, 0, 3.362296752129623e-07
2, 225, 0, 6.065608317840088e-07
2, 226, 0, 9.567093002260663e-07
2, 227, 0, 4.91324897211598e-07
2, 228, 0, 4.175140304596425e-07
2, 229, 0, 6.12107783126703e-07
2, 230, 0, 6.056167194401496e-07
2, 231, 0, 5.358813837119669e-07
2, 232, 0, 4.471685883800092e-07
2, 233, 0, 5.328727752385021e-07
2, 234, 0, 7.960238690429833e-07
2, 235, 0, 6.455670131799707e-07
2, 236, 0, 5.121526100992924e-07
2, 237, 0, 2.265413172608532e-07
2, 238, 0, 5.317343152455578e-07
2, 239, 0, 4.12597557897243e-07
2, 240, 0, 2.848507563157909e-07
2, 241, 0, 3.324164765672322e-07
2, 242, 0, 3.253177283113473e-07
2, 243, 0, 4.894837388746964e-07
2, 244, 0, 4.525082601958275e-07
2, 245, 0, 3.262823042859964e-07
2, 246, 0, 3.054227590837399e-07
2, 247, 0, 3.613816943470738e-07
2, 248, 0, 1.791755579461096e-07
2, 249, 0, 2.763544557637942e-07
2, 250, 0, 2.505433087662823e-07
2, 251, 0, 2.268405410177365e-07
2, 252, 0, 1.77807734758062e-07
2, 253, 0, 4.441573366875673e-07
2, 254, 0, 4.529984209966642e-07
2, 255, 0, 4.402571960326895e-07
2, 256, 0, 1.351848624153718e-07
2, 257, 0, 2.045592992772072e-07
2, 258, 0, 1.510551044248132e-07
2, 259, 0, 2.092619695304165e-07
2, 260, 0, 2.732824384565902e-07
2, 261, 0, 1.408462111385234e-07
2, 262, 0, 3.195717681592214e-07
2, 263, 0, 2.183457041837755e-07
2, 264, 0, 3.403227140097442e-07
2, 265, 0, 2.117119208833174e-07
2, 266, 0, 1.992497260516757e-07
2, 267, 0, 2.402438497028925e-07
2, 268, 0, 2.989808649545012e-07
2, 269, 0, 2.042819460257306e-07
2, 270, 0, 2.644522680839145e-07
2, 271, 0, 2.594063914784783e-07
2, 272, 0, 1.262985449557164e-07
2, 273, 0, 1.071393427309886e-07
2, 274, 0, 1.46262109979034e-07
2, 275, 0, 3.759384696877532e-07
2, 276, 0, 1.40326989139794e-07
2, 277, 0, 4.931050057166431e-07
2, 278, 0, 1.075919726645225e-07
2, 279, 0, 4.058295530739997e-07
2, 280, 0, 9.458815242169294e-08
2, 281, 0, 1.312967725652925e-07
2, 282, 0, 9.692321611964871e-08
2, 283, 0, 7.421930803275245e-08
2, 284, 0, 9.938835177081273e-08
2, 285, 0, 1.503525908219672e-07
2, 286, 0, 1.843399672907253e-07
2, 287, 0, 7.66314656175382e-08
2, 288, 0, 1.985051625297274e-07
2, 289, 0, 1.32241567030178e-07
2, 290, 0, 9.560715596990121e-08
2, 291, 0, 1.518676668865737e-07
2, 292, 0, 3.592123505313793e-07
2, 293, 0, 2.029345012033446e-07
2, 294, 0, 1.35175568516388e-07
2, 295, 0, 1.163480121135763e-07
2, 296, 0, 2.100119473880113e-07
2, 297, 0, 2.168714843264752e-07
2, 298, 0, 2.647476833317342e-07
2, 299, 0, 9.234459525941929e-07
3, 0, 0, 3.380118869245052e-07
3, 1, 0, 2.279493429568902e-07
3, 2, 0, 2.141592290172412e-07
3, 3, 0, 2.696032197491149e-07
3, 4, 0, 4.307161134420312e-07
3, 5, 0, 5.131890929988003e-07
3, 6, 0, 2.969057391055685e-07
3, 7, 0, 1.55811093804914e-07
3, 8, 0, 1.005300418910338e-06
3, 9, 0, 3.495493103855551e-07
3, 10, 0, 3.308209386432281e-07
3, 11, 0, 1.856559066482077e-07
3, 12, 0, 2.642483707404608e-07
3, 13, 0, 2.280367823459528e-07
